"sep=	"
id95AE_Timestamp_Unix_CAL	id95AE_GSR_Range_CAL	id95AE_GSR_Skin_Conductance_CAL	id95AE_GSR_Skin_Resistance_CAL	id95AE_PPG_A13_CAL	
ms	no_units	uS	kOhms	mV	
1732001293853.79	0.0	56.5463	17.6846230434175	1601.4652014652	
1732001293861.6	0.0	2.3121	432.507244496345	0.0	
1732001293869.42	0.0	2.3121	432.507244496345	0.0	
1732001293877.23	0.0	2.3121	432.507244496345	0.0	
1732001293885.04	0.0	2.3121	432.507244496345	0.0	
1732001293892.85	0.0	2.3121	432.507244496345	0.0	
1732001293900.67	0.0	2.3121	432.507244496345	0.0	
1732001293908.48	0.0	2.3121	432.507244496345	0.0	
1732001293916.29	0.0	2.3121	432.507244496345	0.0	
1732001293924.1	0.0	2.3121	432.507244496345	0.0	
1732001293931.92	0.0	2.3121	432.507244496345	0.0	
1732001293939.73	0.0	2.3121	432.507244496345	0.0	
1732001293947.54	1.0	2.102	475.737392959087	0.0	
1732001293955.35	1.0	2.102	475.737392959087	0.0	
1732001293963.17	1.0	2.102	475.737392959087	0.0	
1732001293970.98	1.0	2.102	475.737392959087	0.0	
1732001293978.79	1.0	2.102	475.737392959087	0.0	
1732001293986.6	1.0	2.102	475.737392959087	0.0	
1732001293994.42	1.0	2.102	475.737392959087	0.0	
1732001294002.23	1.0	2.102	475.737392959087	0.0	
1732001294010.04	1.0	2.102	475.737392959087	0.0	
1732001294017.85	1.0	2.102	475.737392959087	0.0	
1732001294025.67	1.0	2.102	475.737392959087	0.0	
1732001294033.48	2.0	1.8907	528.90463849368	0.0	
1732001294041.29	2.0	1.8907	528.90463849368	0.0	
1732001294049.1	2.0	1.8922	528.485360955502	0.0	
1732001294056.92	2.0	1.8922	528.485360955502	0.0	
1732001294064.73	2.0	1.8937	528.066747636901	0.0	
1732001294072.54	2.0	1.8922	528.485360955502	0.0	
1732001294080.35	2.0	1.8967	527.231507354879	0.0	
1732001294088.17	2.0	1.8922	528.485360955502	0.0	
1732001294095.98	2.0	1.8967	527.231507354879	0.0	
1732001294103.79	2.0	1.8937	528.066747636901	0.0	
1732001294111.6	2.0	1.8967	527.231507354879	0.0	
1732001294119.42	2.0	1.8952	527.648796960743	0.0	
1732001294127.23	2.0	1.8967	527.231507354879	0.0	
1732001294135.04	2.0	1.8952	527.648796960743	0.0	
1732001294142.85	2.0	1.8967	527.231507354879	0.0	
1732001294150.67	2.0	1.8967	527.231507354879	0.0	
1732001294158.48	2.0	1.8952	527.648796960743	0.0	
1732001294166.29	2.0	1.8982	526.814877252134	0.0	
1732001294174.1	2.0	1.8952	527.648796960743	0.0	
1732001294181.92	2.0	1.8982	526.814877252134	0.0	
1732001294189.73	2.0	1.8952	527.648796960743	0.0	
1732001294197.54	2.0	1.8997	526.398905090278	0.0	
1732001294205.35	2.0	1.8967	527.231507354879	0.0	
1732001294213.17	2.0	1.8997	526.398905090278	0.0	
1732001294220.98	2.0	1.8967	527.231507354879	0.0	
1732001294228.79	2.0	1.8997	526.398905090278	0.0	
1732001294236.6	2.0	1.8967	527.231507354879	0.0	
1732001294244.42	2.0	1.8997	526.398905090278	0.0	
1732001294252.23	2.0	1.8982	526.814877252134	0.0	
1732001294260.04	2.0	1.8997	526.398905090278	0.0	
1732001294267.85	2.0	1.8997	526.398905090278	0.0	
1732001294275.67	2.0	1.8997	526.398905090278	0.0	
1732001294283.48	2.0	1.9012	525.983589312014	0.0	
1732001294291.29	2.0	1.8982	526.814877252134	0.0	
1732001294299.1	2.0	1.9012	525.983589312014	0.0	
1732001294306.92	2.0	1.8982	526.814877252134	0.0	
1732001294314.73	2.0	1.9027	525.568928364955	0.0	
1732001294322.54	2.0	1.8982	526.814877252134	0.0	
1732001294330.35	2.0	1.9027	525.568928364955	0.0	
1732001294338.17	2.0	1.8997	526.398905090278	0.0	
1732001294345.98	2.0	1.9042	525.154920701607	0.0	
1732001294353.79	2.0	1.9012	525.983589312014	0.0	
1732001294361.6	2.0	1.9042	525.154920701607	0.0	
1732001294369.42	2.0	1.9027	525.568928364955	0.0	
1732001294377.23	2.0	1.9042	525.154920701607	0.0	
1732001294385.04	2.0	1.9042	525.154920701607	0.0	
1732001294392.85	2.0	1.9042	525.154920701607	0.0	
1732001294400.67	2.0	1.9042	525.154920701607	0.0	
1732001294408.48	2.0	1.9042	525.154920701607	0.0	
1732001294416.29	2.0	1.9057	524.741564779346	0.0	
1732001294424.1	2.0	1.9042	525.154920701607	0.0	
1732001294431.92	2.0	1.9057	524.741564779346	0.0	
1732001294439.73	2.0	1.9027	525.568928364955	0.0	
1732001294447.54	2.0	1.9072	524.328859060403	0.0	
1732001294455.35	2.0	1.9042	525.154920701607	0.0	
1732001294463.17	2.0	1.9087	523.91680201184	0.0	
1732001294470.98	2.0	1.9042	525.154920701607	0.0	
1732001294478.79	2.0	1.9087	523.91680201184	0.0	
1732001294486.6	2.0	1.9057	524.741564779346	0.0	
1732001294494.42	2.0	1.9087	523.91680201184	0.0	
1732001294502.23	2.0	1.9072	524.328859060403	0.0	
1732001294510.04	2.0	1.9087	523.91680201184	0.0	
1732001294517.85	2.0	1.9087	523.91680201184	0.0	
1732001294525.67	2.0	1.9072	524.328859060403	0.0	
1732001294533.48	2.0	1.9087	523.91680201184	0.0	
1732001294541.29	2.0	1.9057	524.741564779346	0.0	
1732001294549.1	2.0	1.9087	523.91680201184	0.0	
1732001294556.92	2.0	1.9057	524.741564779346	0.0	
1732001294564.73	2.0	1.9087	523.91680201184	0.0	
1732001294572.54	2.0	1.9057	524.741564779346	0.0	
1732001294580.35	2.0	1.9087	523.91680201184	0.0	
1732001294588.17	2.0	1.9057	524.741564779346	0.0	
1732001294595.98	2.0	1.9102	523.505392105539	0.0	
1732001294603.79	2.0	1.9057	524.741564779346	0.0	
1732001294611.6	2.0	1.9102	523.505392105539	0.0	
1732001294619.42	2.0	1.9072	524.328859060403	0.0	
1732001294627.23	2.0	1.9087	523.91680201184	0.0	
1732001294635.04	2.0	1.9087	523.91680201184	0.0	
1732001294642.85	2.0	1.9072	524.328859060403	0.0	
1732001294650.67	2.0	1.9072	524.328859060403	0.0	
1732001294658.48	2.0	1.9072	524.328859060403	0.0	
1732001294666.29	2.0	1.9087	523.91680201184	0.0	
1732001294674.1	2.0	1.9072	524.328859060403	0.0	
1732001294681.92	2.0	1.9102	523.505392105539	0.0	
1732001294689.73	2.0	1.9072	524.328859060403	0.0	
1732001294697.54	2.0	1.9117	523.094627818172	0.0	
1732001294705.35	2.0	1.9072	524.328859060403	0.0	
1732001294713.17	2.0	1.9117	523.094627818172	0.0	
1732001294720.98	2.0	1.9072	524.328859060403	0.0	
1732001294728.79	2.0	1.9102	523.505392105539	0.0	
1732001294736.6	2.0	1.9072	524.328859060403	0.0	
1732001294744.42	2.0	1.9117	523.094627818172	0.0	
1732001294752.23	2.0	1.9102	523.505392105539	0.0	
1732001294760.04	2.0	1.9102	523.505392105539	0.0	
1732001294767.85	2.0	1.9102	523.505392105539	0.0	
1732001294775.67	2.0	1.9102	523.505392105539	0.0	
1732001294783.48	2.0	1.9102	523.505392105539	0.0	
1732001294791.29	2.0	1.9102	523.505392105539	0.0	
1732001294799.1	2.0	1.9117	523.094627818172	0.0	
1732001294806.92	2.0	1.9102	523.505392105539	0.0	
1732001294814.73	2.0	1.9132	522.684507631194	0.0	
1732001294822.54	2.0	1.9087	523.91680201184	0.0	
1732001294830.35	2.0	1.9132	522.684507631194	0.0	
1732001294838.17	2.0	1.9087	523.91680201184	0.0	
1732001294845.98	2.0	1.9132	522.684507631194	0.0	
1732001294853.79	2.0	1.9102	523.505392105539	0.0	
1732001294861.6	2.0	1.9132	522.684507631194	0.0	
1732001294869.42	2.0	1.9102	523.505392105539	0.0	
1732001294877.23	2.0	1.9132	522.684507631194	0.0	
1732001294885.04	2.0	1.9117	523.094627818172	0.0	
1732001294892.85	2.0	1.9117	523.094627818172	0.0	
1732001294900.67	2.0	1.9132	522.684507631194	0.0	
1732001294908.48	2.0	1.9117	523.094627818172	0.0	
1732001294916.29	2.0	1.9132	522.684507631194	0.0	
1732001294924.1	2.0	1.9102	523.505392105539	0.0	
1732001294931.92	2.0	1.9132	522.684507631194	0.0	
1732001294939.73	2.0	1.9102	523.505392105539	0.0	
1732001294947.54	2.0	1.9147	522.275030030814	0.0	
1732001294955.35	2.0	1.9102	523.505392105539	0.0	
1732001294963.17	2.0	1.9147	522.275030030814	0.0	
1732001294970.98	2.0	1.9117	523.094627818172	0.0	
1732001294978.79	2.0	1.9162	521.866193507984	0.0	
1732001294986.6	2.0	1.9117	523.094627818172	0.0	
1732001294994.42	2.0	1.9147	522.275030030814	0.0	
1732001295002.23	2.0	1.9132	522.684507631194	0.0	
1732001295010.04	2.0	1.9147	522.275030030814	0.0	
1732001295017.85	2.0	1.9147	522.275030030814	0.0	
1732001295025.67	2.0	1.9147	522.275030030814	0.0	
1732001295033.48	2.0	1.9162	521.866193507984	0.0	
1732001295041.29	2.0	1.9132	522.684507631194	0.0	
1732001295049.1	2.0	1.9162	521.866193507984	0.0	
1732001295056.92	2.0	1.9147	522.275030030814	0.0	
1732001295064.73	2.0	1.9177	521.457996558377	0.0	
1732001295072.54	2.0	1.9147	522.275030030814	0.0	
1732001295080.35	2.0	1.9192	521.050437682368	0.0	
1732001295088.17	2.0	1.9132	522.684507631194	0.0	
1732001295095.98	2.0	1.9192	521.050437682368	0.0	
1732001295103.79	2.0	1.9147	522.275030030814	0.0	
1732001295111.6	2.0	1.9177	521.457996558377	0.0	
1732001295119.42	2.0	1.9147	522.275030030814	0.0	
1732001295127.23	2.0	1.9177	521.457996558377	0.0	
1732001295135.04	2.0	1.9162	521.866193507984	0.0	
1732001295142.85	2.0	1.9177	521.457996558377	0.0	
1732001295150.67	2.0	1.9177	521.457996558377	0.0	
1732001295158.48	2.0	1.9162	521.866193507984	0.0	
1732001295166.29	2.0	1.9192	521.050437682368	0.0	
1732001295174.1	2.0	1.9162	521.866193507984	0.0	
1732001295181.92	2.0	1.9192	521.050437682368	0.0	
1732001295189.73	2.0	1.9147	522.275030030814	0.0	
1732001295197.54	2.0	1.9192	521.050437682368	0.0	
1732001295205.35	2.0	1.9147	522.275030030814	0.0	
1732001295213.17	2.0	1.9192	521.050437682368	0.0	
1732001295220.98	2.0	1.9147	522.275030030814	0.0	
1732001295228.79	2.0	1.9192	521.050437682368	0.0	
1732001295236.6	2.0	1.9147	522.275030030814	0.0	
1732001295244.42	2.0	1.9192	521.050437682368	0.0	
1732001295252.23	2.0	1.9162	521.866193507984	0.0	
1732001295260.04	2.0	1.9177	521.457996558377	0.0	
1732001295267.85	2.0	1.9162	521.866193507984	0.0	
1732001295275.67	2.0	1.9162	521.866193507984	0.0	
1732001295283.48	2.0	1.9162	521.866193507984	0.0	
1732001295291.29	2.0	1.9147	522.275030030814	0.0	
1732001295299.1	2.0	1.9162	521.866193507984	0.0	
1732001295306.92	2.0	1.9132	522.684507631194	0.0	
1732001295314.73	2.0	1.9177	521.457996558377	0.0	
1732001295322.54	2.0	1.9132	522.684507631194	0.0	
1732001295330.35	2.0	1.9162	521.866193507984	0.0	
1732001295338.17	2.0	1.9132	522.684507631194	0.0	
1732001295345.98	2.0	1.9177	521.457996558377	0.0	
1732001295353.79	2.0	1.9132	522.684507631194	0.0	
1732001295361.6	2.0	1.9162	521.866193507984	0.0	
1732001295369.42	2.0	1.9132	522.684507631194	0.0	
1732001295377.23	2.0	1.9162	521.866193507984	0.0	
1732001295385.04	2.0	1.9132	522.684507631194	0.0	
1732001295392.85	2.0	1.9147	522.275030030814	0.0	
1732001295400.67	2.0	1.9147	522.275030030814	0.0	
1732001295408.48	2.0	1.9132	522.684507631194	0.0	
1732001295416.29	2.0	1.9162	521.866193507984	0.0	
1732001295424.1	2.0	1.9117	523.094627818172	0.0	
1732001295431.92	2.0	1.9162	521.866193507984	0.0	
1732001295439.73	2.0	1.9117	523.094627818172	0.0	
1732001295447.54	2.0	1.9162	521.866193507984	0.0	
1732001295455.35	2.0	1.9117	523.094627818172	0.0	
1732001295463.17	2.0	1.9162	521.866193507984	0.0	
1732001295470.98	2.0	1.9117	523.094627818172	0.0	
1732001295478.79	2.0	1.9162	521.866193507984	0.0	
1732001295486.6	2.0	1.9117	523.094627818172	0.0	
1732001295494.42	2.0	1.9147	522.275030030814	0.0	
1732001295502.23	2.0	1.9132	522.684507631194	0.0	
1732001295510.04	2.0	1.9147	522.275030030814	0.0	
1732001295517.85	2.0	1.9132	522.684507631194	0.0	
1732001295525.67	2.0	1.9132	522.684507631194	0.0	
1732001295533.48	2.0	1.9132	522.684507631194	0.0	
1732001295541.29	2.0	1.9117	523.094627818172	0.0	
1732001295549.1	2.0	1.9147	522.275030030814	0.0	
1732001295556.92	2.0	1.9102	523.505392105539	0.0	
1732001295564.73	2.0	1.9132	522.684507631194	0.0	
1732001295572.54	2.0	1.9087	523.91680201184	0.0	
1732001295580.35	2.0	1.9132	522.684507631194	0.0	
1732001295588.17	2.0	1.9102	523.505392105539	0.0	
1732001295595.98	2.0	1.9147	522.275030030814	0.0	
1732001295603.79	2.0	1.9102	523.505392105539	0.0	
1732001295611.6	2.0	1.9132	522.684507631194	0.0	
1732001295619.42	2.0	1.9117	523.094627818172	0.0	
1732001295627.23	2.0	1.9132	522.684507631194	0.0	
1732001295635.04	2.0	1.9117	523.094627818172	0.0	
1732001295642.85	2.0	1.9132	522.684507631194	0.0	
1732001295650.67	2.0	1.9132	522.684507631194	0.0	
1732001295658.48	2.0	1.9102	523.505392105539	0.0	
1732001295666.29	2.0	1.9117	523.094627818172	0.0	
1732001295674.1	2.0	1.9102	523.505392105539	0.0	
1732001295681.92	2.0	1.9132	522.684507631194	0.0	
1732001295689.73	2.0	1.9102	523.505392105539	0.0	
1732001295697.54	2.0	1.9132	522.684507631194	0.0	
1732001295705.35	2.0	1.9102	523.505392105539	0.0	
1732001295713.17	2.0	1.9147	522.275030030814	0.0	
1732001295720.98	2.0	1.9102	523.505392105539	0.0	
1732001295728.79	2.0	1.9147	522.275030030814	0.0	
1732001295736.6	2.0	1.9102	523.505392105539	0.0	
1732001295744.42	2.0	1.9147	522.275030030814	0.0	
1732001295752.23	2.0	1.9117	523.094627818172	0.0	
1732001295760.04	2.0	1.9132	522.684507631194	0.0	
1732001295767.85	2.0	1.9132	522.684507631194	0.0	
1732001295775.67	2.0	1.9132	522.684507631194	0.0	
1732001295783.48	2.0	1.9147	522.275030030814	0.0	
1732001295791.29	2.0	1.9132	522.684507631194	0.0	
1732001295799.1	2.0	1.9147	522.275030030814	0.0	
1732001295806.92	2.0	1.9117	523.094627818172	0.0	
1732001295814.73	2.0	1.9147	522.275030030814	0.0	
1732001295822.54	2.0	1.9117	523.094627818172	0.0	
1732001295830.35	2.0	1.9162	521.866193507984	0.0	
1732001295838.17	2.0	1.9117	523.094627818172	0.0	
1732001295845.98	2.0	1.9162	521.866193507984	0.0	
1732001295853.79	2.0	1.9117	523.094627818172	0.0	
1732001295861.6	2.0	1.9147	522.275030030814	0.0	
1732001295869.42	2.0	1.9117	523.094627818172	0.0	
1732001295877.23	2.0	1.9147	522.275030030814	0.0	
1732001295885.04	2.0	1.9132	522.684507631194	0.0	
1732001295892.85	2.0	1.9147	522.275030030814	0.0	
1732001295900.67	2.0	1.9132	522.684507631194	0.0	
1732001295908.48	2.0	1.9117	523.094627818172	0.0	
1732001295916.29	2.0	1.9147	522.275030030814	0.0	
1732001295924.1	2.0	1.9117	523.094627818172	0.0	
1732001295931.92	2.0	1.9147	522.275030030814	0.0	
1732001295939.73	2.0	1.9102	523.505392105539	0.0	
1732001295947.54	2.0	1.9132	522.684507631194	0.0	
1732001295955.35	2.0	1.9102	523.505392105539	0.0	
1732001295963.17	2.0	1.9132	522.684507631194	0.0	
1732001295970.98	2.0	1.9102	523.505392105539	0.0	
1732001295978.79	2.0	1.9132	522.684507631194	0.0	
1732001295986.6	2.0	1.9102	523.505392105539	0.0	
1732001295994.42	2.0	1.9132	522.684507631194	0.0	
1732001296002.23	2.0	1.9102	523.505392105539	0.0	
1732001296010.04	2.0	1.9117	523.094627818172	0.0	
1732001296017.85	2.0	1.9102	523.505392105539	0.0	
1732001296025.67	2.0	1.9117	523.094627818172	0.0	
1732001296033.48	2.0	1.9117	523.094627818172	0.0	
1732001296041.29	2.0	1.9102	523.505392105539	0.0	
1732001296049.1	2.0	1.9132	522.684507631194	0.0	
1732001296056.92	2.0	1.9087	523.91680201184	0.0	
1732001296064.73	2.0	1.9132	522.684507631194	0.0	
1732001296072.54	2.0	1.9087	523.91680201184	0.0	
1732001296080.35	2.0	1.9132	522.684507631194	0.0	
1732001296088.17	2.0	1.9102	523.505392105539	0.0	
1732001296095.98	2.0	1.9132	522.684507631194	0.0	
1732001296103.79	2.0	1.9102	523.505392105539	0.0	
1732001296111.6	2.0	1.9147	522.275030030814	0.0	
1732001296119.42	2.0	1.9117	523.094627818172	0.0	
1732001296127.23	2.0	1.9132	522.684507631194	0.0	
1732001296135.04	2.0	1.9117	523.094627818172	0.0	
1732001296142.85	2.0	1.9117	523.094627818172	0.0	
1732001296150.67	2.0	1.9132	522.684507631194	0.0	
1732001296158.48	2.0	1.9117	523.094627818172	0.0	
1732001296166.29	2.0	1.9132	522.684507631194	0.0	
1732001296174.1	2.0	1.9117	523.094627818172	0.0	
1732001296181.92	2.0	1.9132	522.684507631194	0.0	
1732001296189.73	2.0	1.9102	523.505392105539	0.0	
1732001296197.54	2.0	1.9147	522.275030030814	0.0	
1732001296205.35	2.0	1.9117	523.094627818172	0.0	
1732001296213.17	2.0	1.9162	521.866193507984	0.0	
1732001296220.98	2.0	1.9117	523.094627818172	0.0	
1732001296228.79	2.0	1.9162	521.866193507984	0.0	
1732001296236.6	2.0	1.9132	522.684507631194	0.0	
1732001296244.42	2.0	1.9162	521.866193507984	0.0	
1732001296252.23	2.0	1.9132	522.684507631194	0.0	
1732001296260.04	2.0	1.9162	521.866193507984	0.0	
1732001296267.85	2.0	1.9162	521.866193507984	0.0	
1732001296275.67	2.0	1.9162	521.866193507984	0.0	
1732001296283.48	2.0	1.9162	521.866193507984	0.0	
1732001296291.29	2.0	1.9162	521.866193507984	0.0	
1732001296299.1	2.0	1.9177	521.457996558377	0.0	
1732001296306.92	2.0	1.9147	522.275030030814	0.0	
1732001296314.73	2.0	1.9192	521.050437682368	0.0	
1732001296322.54	2.0	1.9147	522.275030030814	0.0	
1732001296330.35	2.0	1.9192	521.050437682368	0.0	
1732001296338.17	2.0	1.9162	521.866193507984	0.0	
1732001296345.98	2.0	1.9192	521.050437682368	0.0	
1732001296353.79	2.0	1.9162	521.866193507984	0.0	
1732001296361.6	2.0	1.9192	521.050437682368	0.0	
1732001296369.42	2.0	1.9177	521.457996558377	0.0	
1732001296377.23	2.0	1.9207	520.643515385016	0.0	
1732001296385.04	2.0	1.9177	521.457996558377	0.0	
1732001296392.85	2.0	1.9207	520.643515385016	0.0	
1732001296400.67	2.0	1.9207	520.643515385016	0.0	
1732001296408.48	2.0	1.9207	520.643515385016	0.0	
1732001296416.29	2.0	1.9207	520.643515385016	0.0	
1732001296424.1	2.0	1.9192	521.050437682368	0.0	
1732001296431.92	2.0	1.9222	520.237228176048	0.0	
1732001296439.73	2.0	1.9207	520.643515385016	0.0	
1732001296447.54	2.0	1.9237	519.831574569839	0.0	
1732001296455.35	2.0	1.9192	521.050437682368	0.0	
1732001296463.17	2.0	1.9237	519.831574569839	0.0	
1732001296470.98	2.0	1.9207	520.643515385016	0.0	
1732001296478.79	2.0	1.9252	519.426553085394	0.0	
1732001296486.6	2.0	1.9222	520.237228176048	0.0	
1732001296494.42	2.0	1.9252	519.426553085394	0.0	
1732001296502.23	2.0	1.9237	519.831574569839	0.0	
1732001296510.04	2.0	1.9252	519.426553085394	0.0	
1732001296517.85	2.0	1.9252	519.426553085394	0.0	
1732001296525.67	2.0	1.9252	519.426553085394	0.0	
1732001296533.48	2.0	1.9267	519.022162246328	0.0	
1732001296541.29	2.0	1.9252	519.426553085394	0.0	
1732001296549.1	2.0	1.9267	519.022162246328	0.0	
1732001296556.92	2.0	1.9252	519.426553085394	0.0	
1732001296564.73	2.0	1.9282	518.618400580853	0.0	
1732001296572.54	2.0	1.9252	519.426553085394	0.0	
1732001296580.35	2.0	1.9297	518.215266621755	0.0	
1732001296588.17	2.0	1.9252	519.426553085394	0.0	
1732001296595.98	2.0	1.9297	518.215266621755	0.0	
1732001296603.79	2.0	1.9252	519.426553085394	5.12820512820513	
1732001296611.6	2.0	1.9222	520.237228176048	215.384615384615	
1732001296619.42	2.0	1.8997	526.398905090278	540.659340659341	
1732001296627.23	2.0	1.8742	533.560986020702	900.3663003663	
1732001296635.04	2.0	1.8397	543.566885905311	1251.28205128205	
1732001296642.85	2.0	1.8097	552.577775321877	1564.10256410256	
1732001296650.67	2.0	1.7827	560.946878330622	1825.64102564103	
1732001296658.48	2.0	1.7632	567.150635208712	2027.83882783883	
1732001296666.29	2.0	1.7497	571.526547408127	2171.42857142857	
1732001296674.1	2.0	1.7392	574.977000919963	2257.87545787546	
1732001296681.92	2.0	1.7362	575.970510309872	2293.77289377289	
1732001296689.73	2.0	1.7347	576.468553640399	2285.71428571429	
1732001296697.54	2.0	1.7422	573.986913098381	2243.22344322344	
1732001296705.35	2.0	1.7452	573.000229200092	2171.42857142857	
1732001296713.17	2.0	1.7587	568.60180815375	2076.19047619048	
1732001296720.98	2.0	1.7647	566.668555561852	1969.23076923077	
1732001296728.79	2.0	1.7797	561.892453784346	1852.74725274725	
1732001296736.6	2.0	1.7887	559.065242913848	1733.33333333333	
1732001296744.42	2.0	1.8037	554.415922825304	1614.65201465201	
1732001296752.23	2.0	1.8127	551.663264743201	1500.3663003663	
1732001296760.04	2.0	1.8262	547.585149490746	1390.47619047619	
1732001296767.85	2.0	1.8337	545.345476359274	1289.37728937729	
1732001296775.67	2.0	1.8427	542.681934118413	1200.0	
1732001296783.48	2.0	1.8502	540.482110042158	1123.80952380952	
1732001296791.29	2.0	1.8547	539.170755378228	1064.46886446886	
1732001296799.1	2.0	1.8622	536.999248201052	1020.51282051282	
1732001296806.92	2.0	1.8622	536.999248201052	991.208791208791	
1732001296814.73	2.0	1.8667	535.704719558579	976.556776556776	
1732001296822.54	2.0	1.8652	536.135535063264	977.289377289377	
1732001296830.35	2.0	1.8682	535.27459586768	991.208791208791	
1732001296838.17	2.0	1.8622	536.999248201052	1016.11721611722	
1732001296845.98	2.0	1.8652	536.135535063264	1050.54945054945	
1732001296853.79	2.0	1.8577	538.300048447004	1095.2380952381	
1732001296861.6	2.0	1.8577	538.300048447004	1147.98534798535	
1732001296869.42	2.0	1.8502	540.482110042158	1203.663003663	
1732001296877.23	2.0	1.8487	540.920646941094	1260.07326007326	
1732001296885.04	2.0	1.8427	542.681934118413	1316.48351648352	
1732001296892.85	2.0	1.8397	543.566885905311	1367.03296703297	
1732001296900.67	2.0	1.8352	544.899738448126	1411.72161172161	
1732001296908.48	2.0	1.8322	545.791944110905	1449.81684981685	
1732001296916.29	2.0	1.8307	546.239143497023	1477.65567765568	
1732001296924.1	2.0	1.8262	547.585149490746	1497.4358974359	
1732001296931.92	2.0	1.8262	547.585149490746	1508.42490842491	
1732001296939.73	2.0	1.8232	548.486178148311	1509.15750915751	
1732001296947.54	2.0	1.8277	547.13574437818	1499.6336996337	
1732001296955.35	2.0	1.8247	548.0352934729	1484.24908424908	
1732001296963.17	2.0	1.8307	546.239143497023	1462.27106227106	
1732001296970.98	2.0	1.8292	546.687076317516	1436.63003663004	
1732001296978.79	2.0	1.8352	544.899738448126	1410.25641025641	
1732001296986.6	2.0	1.8337	545.345476359274	1380.95238095238	
1732001296994.42	2.0	1.8397	543.566885905311	1351.64835164835	
1732001297002.23	2.0	1.8397	543.566885905311	1321.61172161172	
1732001297010.04	2.0	1.8442	542.240537902614	1291.57509157509	
1732001297017.85	2.0	1.8442	542.240537902614	1263.00366300366	
1732001297025.67	2.0	1.8472	541.3598960589	1235.89743589744	
1732001297033.48	2.0	1.8502	540.482110042158	1207.32600732601	
1732001297041.29	2.0	1.8517	540.044283631258	1178.02197802198	
1732001297049.1	2.0	1.8547	539.170755378228	1151.64835164835	
1732001297056.92	2.0	1.8547	539.170755378228	1126.00732600733	
1732001297064.73	2.0	1.8592	537.865748709122	1101.8315018315	
1732001297072.54	2.0	1.8577	538.300048447004	1080.58608058608	
1732001297080.35	2.0	1.8622	536.999248201052	1063.73626373626	
1732001297088.17	2.0	1.8607	537.432149191165	1049.81684981685	
1732001297095.98	2.0	1.8652	536.135535063264	1039.56043956044	
1732001297103.79	2.0	1.8622	536.999248201052	1031.50183150183	
1732001297111.6	2.0	1.8667	535.704719558579	1027.83882783883	
1732001297119.42	2.0	1.8622	536.999248201052	1030.03663003663	
1732001297127.23	2.0	1.8652	536.135535063264	1032.96703296703	
1732001297135.04	2.0	1.8637	536.567044052154	1036.63003663004	
1732001297142.85	2.0	1.8637	536.567044052154	1042.49084249084	
1732001297150.67	2.0	1.8637	536.567044052154	1049.81684981685	
1732001297158.48	2.0	1.8622	536.999248201052	1056.41025641026	
1732001297166.29	2.0	1.8622	536.999248201052	1061.53846153846	
1732001297174.1	2.0	1.8607	537.432149191165	1066.66666666667	
1732001297181.92	2.0	1.8622	536.999248201052	1071.06227106227	
1732001297189.73	2.0	1.8592	537.865748709122	1077.65567765568	
1732001297197.54	2.0	1.8622	536.999248201052	1082.78388278388	
1732001297205.35	2.0	1.8577	538.300048447004	1084.98168498169	
1732001297213.17	2.0	1.8622	536.999248201052	1083.51648351648	
1732001297220.98	2.0	1.8577	538.300048447004	1082.05128205128	
1732001297228.79	2.0	1.8622	536.999248201052	1083.51648351648	
1732001297236.6	2.0	1.8577	538.300048447004	1089.37728937729	
1732001297244.42	2.0	1.8607	537.432149191165	1099.6336996337	
1732001297252.23	2.0	1.8577	538.300048447004	1110.62271062271	
1732001297260.04	2.0	1.8592	537.865748709122	1129.67032967033	
1732001297267.85	2.0	1.8562	538.73505010236	1164.83516483516	
1732001297275.67	2.0	1.8532	539.607165983164	1227.83882783883	
1732001297283.48	2.0	1.8457	541.799859132037	1325.27472527473	
1732001297291.29	2.0	1.8382	544.010445000544	1462.27106227106	
1732001297299.1	2.0	1.8277	547.13574437818	1631.50183150183	
1732001297306.92	2.0	1.8127	551.663264743201	1819.78021978022	
1732001297314.73	2.0	1.7992	555.802578923966	2016.84981684982	
1732001297322.54	2.0	1.7797	561.892453784346	2208.79120879121	
1732001297330.35	2.0	1.7677	565.706850709962	2381.68498168498	
1732001297338.17	2.0	1.7497	571.526547408127	2522.34432234432	
1732001297345.98	2.0	1.7437	573.493146756896	2624.17582417582	
1732001297353.79	2.0	1.7317	577.467228734769	2686.44688644689	
1732001297361.6	2.0	1.7332	576.96745903531	2706.22710622711	
1732001297369.42	2.0	1.7287	578.469370046856	2690.10989010989	
1732001297377.23	2.0	1.7347	576.468553640399	2638.82783882784	
1732001297385.04	2.0	1.7377	575.473326811302	2557.50915750916	
1732001297392.85	2.0	1.7482	572.016931701178	2453.47985347985	
1732001297400.67	2.0	1.7557	569.573389531241	2333.33333333333	
1732001297408.48	2.0	1.7662	566.187294757106	2200.7326007326	
1732001297416.29	2.0	1.7782	562.366437970982	2060.80586080586	
1732001297424.1	2.0	1.7872	559.534467323187	1917.21611721612	
1732001297431.92	2.0	1.8022	554.877372100766	1774.35897435897	
1732001297439.73	2.0	1.8097	552.577775321877	1635.16483516484	
1732001297447.54	2.0	1.8232	548.486178148311	1504.0293040293	
1732001297455.35	2.0	1.8292	546.687076317516	1382.41758241758	
1732001297463.17	2.0	1.8412	543.124049532913	1273.26007326007	
1732001297470.98	2.0	1.8442	542.240537902614	1179.48717948718	
1732001297478.79	2.0	1.8547	539.170755378228	1097.4358974359	
1732001297486.6	2.0	1.8562	538.73505010236	1032.23443223443	
1732001297494.42	2.0	1.8637	536.567044052154	981.684981684982	
1732001297502.23	2.0	1.8637	536.567044052154	945.054945054945	
1732001297510.04	2.0	1.8682	535.27459586768	923.809523809524	
1732001297517.85	2.0	1.8667	535.704719558579	920.14652014652	
1732001297525.67	2.0	1.8667	535.704719558579	931.868131868132	
1732001297533.48	2.0	1.8652	536.135535063264	958.974358974359	
1732001297541.29	2.0	1.8622	536.999248201052	994.871794871795	
1732001297549.1	2.0	1.8607	537.432149191165	1038.09523809524	
1732001297556.92	2.0	1.8547	539.170755378228	1089.37728937729	
1732001297564.73	2.0	1.8532	539.607165983164	1146.52014652015	
1732001297572.54	2.0	1.8457	541.799859132037	1208.05860805861	
1732001297580.35	2.0	1.8442	542.240537902614	1268.13186813187	
1732001297588.17	2.0	1.8367	544.454728589318	1325.27472527473	
1732001297595.98	2.0	1.8367	544.454728589318	1377.28937728938	
1732001297603.79	2.0	1.8277	547.13574437818	1421.24542124542	
1732001297611.6	2.0	1.8292	546.687076317516	1455.67765567766	
1732001297619.42	2.0	1.8232	548.486178148311	1477.65567765568	
1732001297627.23	2.0	1.8262	547.585149490746	1487.17948717949	
1732001297635.04	2.0	1.8217	548.937805346654	1486.44688644689	
1732001297642.85	2.0	1.8247	548.0352934729	1476.19047619048	
1732001297650.67	2.0	1.8247	548.0352934729	1462.27106227106	
1732001297658.48	2.0	1.8247	548.0352934729	1443.22344322344	
1732001297666.29	2.0	1.8277	547.13574437818	1418.31501831502	
1732001297674.1	2.0	1.8277	547.13574437818	1389.74358974359	
1732001297681.92	2.0	1.8322	545.791944110905	1357.50915750916	
1732001297689.73	2.0	1.8307	546.239143497023	1323.80952380952	
1732001297697.54	2.0	1.8367	544.454728589318	1290.84249084249	
1732001297705.35	2.0	1.8352	544.899738448126	1259.34065934066	
1732001297713.17	2.0	1.8412	543.124049532913	1231.50183150183	
1732001297720.98	2.0	1.8382	544.010445000544	1205.86080586081	
1732001297728.79	2.0	1.8442	542.240537902614	1182.41758241758	
1732001297736.6	2.0	1.8427	542.681934118413	1159.70695970696	
1732001297744.42	2.0	1.8457	541.799859132037	1138.46153846154	
1732001297752.23	2.0	1.8442	542.240537902614	1118.68131868132	
1732001297760.04	2.0	1.8487	540.920646941094	1099.6336996337	
1732001297767.85	2.0	1.8487	540.920646941094	1081.31868131868	
1732001297775.67	2.0	1.8502	540.482110042158	1065.20146520147	
1732001297783.48	2.0	1.8502	540.482110042158	1052.01465201465	
1732001297791.29	2.0	1.8502	540.482110042158	1041.75824175824	
1732001297799.1	2.0	1.8517	540.044283631258	1031.50183150183	
1732001297806.92	2.0	1.8502	540.482110042158	1022.71062271062	
1732001297814.73	2.0	1.8532	539.607165983164	1016.84981684982	
1732001297822.54	2.0	1.8502	540.482110042158	1013.18681318681	
1732001297830.35	2.0	1.8547	539.170755378228	1012.45421245421	
1732001297838.17	2.0	1.8502	540.482110042158	1015.38461538462	
1732001297845.98	2.0	1.8547	539.170755378228	1018.31501831502	
1732001297853.79	2.0	1.8487	540.920646941094	1024.17582417582	
1732001297861.6	2.0	1.8517	540.044283631258	1032.23443223443	
1732001297869.42	2.0	1.8472	541.3598960589	1037.36263736264	
1732001297877.23	2.0	1.8517	540.044283631258	1042.49084249084	
1732001297885.04	2.0	1.8487	540.920646941094	1047.61904761905	
1732001297892.85	2.0	1.8487	540.920646941094	1052.74725274725	
1732001297900.67	2.0	1.8487	540.920646941094	1056.41025641026	
1732001297908.48	2.0	1.8487	540.920646941094	1061.53846153846	
1732001297916.29	2.0	1.8472	541.3598960589	1064.46886446886	
1732001297924.1	2.0	1.8472	541.3598960589	1067.39926739927	
1732001297931.92	2.0	1.8487	540.920646941094	1069.59706959707	
1732001297939.73	2.0	1.8457	541.799859132037	1071.06227106227	
1732001297947.54	2.0	1.8487	540.920646941094	1073.26007326007	
1732001297955.35	2.0	1.8442	542.240537902614	1078.38827838828	
1732001297963.17	2.0	1.8487	540.920646941094	1090.84249084249	
1732001297970.98	2.0	1.8427	542.681934118413	1109.15750915751	
1732001297978.79	2.0	1.8457	541.799859132037	1139.92673992674	
1732001297986.6	2.0	1.8397	543.566885905311	1191.94139194139	
1732001297994.42	2.0	1.8382	544.010445000544	1276.92307692308	
1732001298002.23	2.0	1.8277	547.13574437818	1394.87179487179	
1732001298010.04	2.0	1.8217	548.937805346654	1542.85714285714	
1732001298017.85	2.0	1.8082	553.036168565424	1714.28571428571	
1732001298025.67	2.0	1.7977	556.266340323747	1900.3663003663	
1732001298033.48	2.0	1.7827	560.946878330622	2088.64468864469	
1732001298041.29	2.0	1.7692	565.22722134298	2266.66666666667	
1732001298049.1	2.0	1.7557	569.573389531241	2421.24542124542	
1732001298056.92	2.0	1.7422	573.986913098381	2542.85714285714	
1732001298064.73	2.0	1.7362	575.970510309872	2623.44322344322	
1732001298072.54	2.0	1.7272	578.971746178786	2663.73626373626	
1732001298080.35	2.0	1.7287	578.469370046856	2664.46886446886	
1732001298088.17	2.0	1.7257	579.474995653938	2626.37362637363	
1732001298095.98	2.0	1.7347	576.468553640399	2556.04395604396	
1732001298103.79	2.0	1.7362	575.970510309872	2457.87545787546	
1732001298111.6	2.0	1.7497	571.526547408127	2339.92673992674	
1732001298119.42	2.0	1.7557	569.573389531241	2208.05860805861	
1732001298127.23	2.0	1.7692	565.22722134298	2068.13186813187	
1732001298135.04	2.0	1.7767	562.841222491135	1923.80952380952	
1732001298142.85	2.0	1.7902	558.596804826276	1780.21978021978	
1732001298150.67	2.0	1.7992	555.802578923966	1641.75824175824	
1732001298158.48	2.0	1.8082	553.036168565424	1511.35531135531	
1732001298166.29	2.0	1.8172	550.297160466652	1391.20879120879	
1732001298174.1	2.0	1.8247	548.0352934729	1280.58608058608	
1732001298181.92	2.0	1.8337	545.345476359274	1182.41758241758	
1732001298189.73	2.0	1.8367	544.454728589318	1095.2380952381	
1732001298197.54	2.0	1.8457	541.799859132037	1022.71062271062	
1732001298205.35	2.0	1.8457	541.799859132037	965.567765567766	
1732001298213.17	2.0	1.8532	539.607165983164	924.542124542124	
1732001298220.98	2.0	1.8502	540.482110042158	900.3663003663	
1732001298228.79	2.0	1.8562	538.73505010236	893.772893772894	
1732001298236.6	2.0	1.8517	540.044283631258	901.831501831502	
1732001298244.42	2.0	1.8547	539.170755378228	923.076923076923	
1732001298252.23	2.0	1.8487	540.920646941094	956.043956043956	
1732001298260.04	2.0	1.8487	540.920646941094	998.534798534799	
1732001298267.85	2.0	1.8427	542.681934118413	1048.35164835165	
1732001298275.67	2.0	1.8397	543.566885905311	1104.7619047619	
1732001298283.48	2.0	1.8352	544.899738448126	1164.83516483516	
1732001298291.29	2.0	1.8307	546.239143497023	1226.37362637363	
1732001298299.1	2.0	1.8277	547.13574437818	1286.44688644689	
1732001298306.92	2.0	1.8202	549.390176903637	1342.12454212454	
1732001298314.73	2.0	1.8202	549.390176903637	1389.74358974359	
1732001298322.54	2.0	1.8127	551.663264743201	1430.03663003663	
1732001298330.35	2.0	1.8142	551.207143644582	1463.73626373626	
1732001298338.17	2.0	1.8082	553.036168565424	1488.64468864469	
1732001298345.98	2.0	1.8112	552.120141342756	1504.0293040293	
1732001298353.79	2.0	1.8067	553.495322964521	1508.42490842491	
1732001298361.6	2.0	1.8097	552.577775321877	1505.49450549451	
1732001298369.42	2.0	1.8082	553.036168565424	1497.4358974359	
1732001298377.23	2.0	1.8112	552.120141342756	1481.31868131868	
1732001298385.04	2.0	1.8097	552.577775321877	1458.60805860806	
1732001298392.85	2.0	1.8142	551.207143644582	1430.03663003663	
1732001298400.67	2.0	1.8142	551.207143644582	1397.0695970696	
1732001298408.48	2.0	1.8172	550.297160466652	1363.36996336996	
1732001298416.29	2.0	1.8202	549.390176903637	1330.40293040293	
1732001298424.1	2.0	1.8202	549.390176903637	1298.9010989011	
1732001298431.92	2.0	1.8247	548.0352934729	1268.13186813187	
1732001298439.73	2.0	1.8247	548.0352934729	1237.36263736264	
1732001298447.54	2.0	1.8292	546.687076317516	1208.05860805861	
1732001298455.35	2.0	1.8277	547.13574437818	1178.02197802198	
1732001298463.17	2.0	1.8337	545.345476359274	1150.18315018315	
1732001298470.98	2.0	1.8307	546.239143497023	1125.27472527473	
1732001298478.79	2.0	1.8367	544.454728589318	1104.0293040293	
1732001298486.6	2.0	1.8337	545.345476359274	1084.98168498169	
1732001298494.42	2.0	1.8382	544.010445000544	1069.59706959707	
1732001298502.23	2.0	1.8352	544.899738448126	1056.41025641026	
1732001298510.04	2.0	1.8397	543.566885905311	1046.15384615385	
1732001298517.85	2.0	1.8382	544.010445000544	1037.36263736264	
1732001298525.67	2.0	1.8397	543.566885905311	1031.50183150183	
1732001298533.48	2.0	1.8397	543.566885905311	1025.64102564103	
1732001298541.29	2.0	1.8397	543.566885905311	1021.97802197802	
1732001298549.1	2.0	1.8397	543.566885905311	1020.51282051282	
1732001298556.92	2.0	1.8382	544.010445000544	1021.97802197802	
1732001298564.73	2.0	1.8397	543.566885905311	1027.10622710623	
1732001298572.54	2.0	1.8367	544.454728589318	1033.69963369963	
1732001298580.35	2.0	1.8397	543.566885905311	1043.22344322344	
1732001298588.17	2.0	1.8337	545.345476359274	1054.21245421245	
1732001298595.98	2.0	1.8382	544.010445000544	1065.93406593407	
1732001298603.79	2.0	1.8322	545.791944110905	1076.92307692308	
1732001298611.6	2.0	1.8352	544.899738448126	1088.64468864469	
1732001298619.42	2.0	1.8307	546.239143497023	1097.4358974359	
1732001298627.23	2.0	1.8337	545.345476359274	1101.8315018315	
1732001298635.04	2.0	1.8307	546.239143497023	1104.0293040293	
1732001298642.85	2.0	1.8337	545.345476359274	1105.49450549451	
1732001298650.67	2.0	1.8322	545.791944110905	1106.95970695971	
1732001298658.48	2.0	1.8322	545.791944110905	1110.62271062271	
1732001298666.29	2.0	1.8322	545.791944110905	1119.41391941392	
1732001298674.1	2.0	1.8307	546.239143497023	1136.26373626374	
1732001298681.92	2.0	1.8292	546.687076317516	1166.30036630037	
1732001298689.73	2.0	1.8247	548.0352934729	1217.58241758242	
1732001298697.54	2.0	1.8232	548.486178148311	1294.50549450549	
1732001298705.35	2.0	1.8142	551.207143644582	1402.1978021978	
1732001298713.17	2.0	1.8097	552.577775321877	1540.65934065934	
1732001298720.98	2.0	1.7962	556.730876294399	1700.3663003663	
1732001298728.79	2.0	1.7887	559.065242913848	1873.99267399267	
1732001298736.6	2.0	1.7737	563.793200654	2047.61904761905	
1732001298744.42	2.0	1.7662	566.187294757106	2210.25641025641	
1732001298752.23	2.0	1.7497	571.526547408127	2348.71794871795	
1732001298760.04	2.0	1.7437	573.493146756896	2454.21245421245	
1732001298767.85	2.0	1.7347	576.468553640399	2525.27472527472	
1732001298775.67	2.0	1.7302	577.967864986707	2557.50915750916	
1732001298783.48	2.0	1.7287	578.469370046856	2551.64835164835	
1732001298791.29	2.0	1.7302	577.967864986707	2512.82051282051	
1732001298799.1	2.0	1.7347	576.468553640399	2446.88644688645	
1732001298806.92	2.0	1.7377	575.473326811302	2357.50915750916	
1732001298814.73	2.0	1.7482	572.016931701178	2249.08424908425	
1732001298822.54	2.0	1.7542	570.060426405199	2128.20512820513	
1732001298830.35	2.0	1.7662	566.187294757106	1997.8021978022	
1732001298838.17	2.0	1.7722	564.270398374901	1863.73626373626	
1732001298845.98	2.0	1.7872	559.534467323187	1730.40293040293	
1732001298853.79	2.0	1.7902	558.596804826276	1601.4652014652	
1732001298861.6	2.0	1.8037	554.415922825304	1478.38827838828	
1732001298869.42	2.0	1.8082	553.036168565424	1361.90476190476	
1732001298877.23	2.0	1.8202	549.390176903637	1254.21245421245	
1732001298885.04	2.0	1.8232	548.486178148311	1157.50915750916	
1732001298892.85	2.0	1.8322	545.791944110905	1073.99267399267	
1732001298900.67	2.0	1.8352	544.899738448126	1005.86080586081	
1732001298908.48	2.0	1.8397	543.566885905311	950.915750915751	
1732001298916.29	2.0	1.8427	542.681934118413	909.157509157509	
1732001298924.1	2.0	1.8442	542.240537902614	882.051282051282	
1732001298931.92	2.0	1.8457	541.799859132037	866.666666666667	
1732001298939.73	2.0	1.8442	542.240537902614	864.468864468864	
1732001298947.54	2.0	1.8457	541.799859132037	878.388278388278	
1732001298955.35	2.0	1.8397	543.566885905311	905.494505494506	
1732001298963.17	2.0	1.8427	542.681934118413	942.857142857143	
1732001298970.98	2.0	1.8352	544.899738448126	989.74358974359	
1732001298978.79	2.0	1.8367	544.454728589318	1041.75824175824	
1732001298986.6	2.0	1.8277	547.13574437818	1098.9010989011	
1732001298994.42	2.0	1.8277	547.13574437818	1157.50915750916	
1732001299002.23	2.0	1.8202	549.390176903637	1217.58241758242	
1732001299010.04	2.0	1.8202	549.390176903637	1276.19047619048	
1732001299017.85	2.0	1.8142	551.207143644582	1326.73992673993	
1732001299025.67	2.0	1.8127	551.663264743201	1367.03296703297	
1732001299033.48	2.0	1.8082	553.036168565424	1397.0695970696	
1732001299041.29	2.0	1.8067	553.495322964521	1417.58241758242	
1732001299049.1	2.0	1.8067	553.495322964521	1430.76923076923	
1732001299056.92	2.0	1.8052	553.955240416574	1438.82783882784	
1732001299064.73	2.0	1.8067	553.495322964521	1439.56043956044	
1732001299072.54	2.0	1.8037	554.415922825304	1435.16483516484	
1732001299080.35	2.0	1.8082	553.036168565424	1423.44322344322	
1732001299088.17	2.0	1.8037	554.415922825304	1408.79120879121	
1732001299095.98	2.0	1.8097	552.577775321877	1389.01098901099	
1732001299103.79	2.0	1.8082	553.036168565424	1364.10256410256	
1732001299111.6	2.0	1.8127	551.663264743201	1334.06593406593	
1732001299119.42	2.0	1.8112	552.120141342756	1300.3663003663	
1732001299127.23	2.0	1.8172	550.297160466652	1265.93406593407	
1732001299135.04	2.0	1.8172	550.297160466652	1232.23443223443	
1732001299142.85	2.0	1.8217	548.937805346654	1200.0	
1732001299150.67	2.0	1.8217	548.937805346654	1170.69597069597	
1732001299158.48	2.0	1.8247	548.0352934729	1146.52014652015	
1732001299166.29	2.0	1.8262	547.585149490746	1126.00732600733	
1732001299174.1	2.0	1.8262	547.585149490746	1107.69230769231	
1732001299181.92	2.0	1.8292	546.687076317516	1090.84249084249	
1732001299189.73	2.0	1.8277	547.13574437818	1076.19047619048	
1732001299197.54	2.0	1.8307	546.239143497023	1066.66666666667	
1732001299205.35	2.0	1.8277	547.13574437818	1060.80586080586	
1732001299213.17	2.0	1.8322	545.791944110905	1058.60805860806	
1732001299220.98	2.0	1.8277	547.13574437818	1058.60805860806	
1732001299228.79	2.0	1.8322	545.791944110905	1063.00366300366	
1732001299236.6	2.0	1.8277	547.13574437818	1068.13186813187	
1732001299244.42	2.0	1.8307	546.239143497023	1073.99267399267	
1732001299252.23	2.0	1.8262	547.585149490746	1081.31868131868	
1732001299260.04	2.0	1.8292	546.687076317516	1088.64468864469	
1732001299267.85	2.0	1.8262	547.585149490746	1093.77289377289	
1732001299275.67	2.0	1.8277	547.13574437818	1094.50549450549	
1732001299283.48	2.0	1.8262	547.585149490746	1095.2380952381	
1732001299291.29	2.0	1.8262	547.585149490746	1095.2380952381	
1732001299299.1	2.0	1.8262	547.585149490746	1095.2380952381	
1732001299306.92	2.0	1.8262	547.585149490746	1095.9706959707	
1732001299314.73	2.0	1.8292	546.687076317516	1098.1684981685	
1732001299322.54	2.0	1.8247	548.0352934729	1101.8315018315	
1732001299330.35	2.0	1.8277	547.13574437818	1106.22710622711	
1732001299338.17	2.0	1.8232	548.486178148311	1110.62271062271	
1732001299345.98	2.0	1.8277	547.13574437818	1116.48351648352	
1732001299353.79	2.0	1.8232	548.486178148311	1126.00732600733	
1732001299361.6	2.0	1.8262	547.585149490746	1141.39194139194	
1732001299369.42	2.0	1.8217	548.937805346654	1164.10256410256	
1732001299377.23	2.0	1.8232	548.486178148311	1202.1978021978	
1732001299385.04	2.0	1.8172	550.297160466652	1263.00366300366	
1732001299392.85	2.0	1.8142	551.207143644582	1353.11355311355	
1732001299400.67	2.0	1.8067	553.495322964521	1476.19047619048	
1732001299408.48	2.0	1.7977	556.266340323747	1624.90842490842	
1732001299416.29	2.0	1.7872	559.534467323187	1791.94139194139	
1732001299424.1	2.0	1.7752	563.316809373592	1968.49816849817	
1732001299431.92	2.0	1.7647	566.668555561852	2141.39194139194	
1732001299439.73	2.0	1.7497	571.526547408127	2299.6336996337	
1732001299447.54	2.0	1.7422	573.986913098381	2430.03663003663	
1732001299455.35	2.0	1.7287	578.469370046856	2526.73992673993	
1732001299463.17	2.0	1.7257	579.474995653938	2586.08058608059	
1732001299470.98	2.0	1.7182	582.004423233617	2607.32600732601	
1732001299478.79	2.0	1.7227	580.484123759215	2591.94139194139	
1732001299486.6	2.0	1.7197	581.496772692911	2543.58974358974	
1732001299494.42	2.0	1.7287	578.469370046856	2465.93406593407	
1732001299502.23	2.0	1.7317	577.467228734769	2367.03296703297	
1732001299510.04	2.0	1.7437	573.493146756896	2247.61904761905	
1732001299517.85	2.0	1.7512	571.037003197807	2116.48351648352	
1732001299525.67	2.0	1.7632	567.150635208712	1976.55677655678	
1732001299533.48	2.0	1.7722	564.270398374901	1833.69963369963	
1732001299541.29	2.0	1.7827	560.946878330622	1693.77289377289	
1732001299549.1	2.0	1.7917	558.129151085561	1557.50915750916	
1732001299556.92	2.0	1.8007	555.339590159382	1427.83882783883	
1732001299564.73	2.0	1.8097	552.577775321877	1309.15750915751	
1732001299572.54	2.0	1.8142	551.207143644582	1202.9304029304	
1732001299580.35	2.0	1.8247	548.0352934729	1112.08791208791	
1732001299588.17	2.0	1.8262	547.585149490746	1032.96703296703	
1732001299595.98	2.0	1.8337	545.345476359274	967.032967032967	
1732001299603.79	2.0	1.8337	545.345476359274	915.018315018315	
1732001299611.6	2.0	1.8412	543.124049532913	876.923076923077	
1732001299619.42	2.0	1.8382	544.010445000544	852.014652014652	
1732001299627.23	2.0	1.8427	542.681934118413	841.025641025641	
1732001299635.04	2.0	1.8397	543.566885905311	845.421245421245	
1732001299642.85	2.0	1.8412	543.124049532913	863.736263736264	
1732001299650.67	2.0	1.8367	544.454728589318	891.575091575091	
1732001299658.48	2.0	1.8367	544.454728589318	930.40293040293	
1732001299666.29	2.0	1.8337	545.345476359274	978.021978021978	
1732001299674.1	2.0	1.8292	546.687076317516	1030.76923076923	
1732001299681.92	2.0	1.8262	547.585149490746	1087.17948717949	
1732001299689.73	2.0	1.8202	549.390176903637	1143.58974358974	
1732001299697.54	2.0	1.8187	549.843294661022	1198.5347985348	
1732001299705.35	2.0	1.8127	551.663264743201	1251.28205128205	
1732001299713.17	2.0	1.8127	551.663264743201	1297.4358974359	
1732001299720.98	2.0	1.8067	553.495322964521	1339.19413919414	
1732001299728.79	2.0	1.8082	553.036168565424	1373.62637362637	
1732001299736.6	2.0	1.8022	554.877372100766	1399.2673992674	
1732001299744.42	2.0	1.8052	553.955240416574	1416.11721611722	
1732001299752.23	2.0	1.8007	555.339590159382	1423.44322344322	
1732001299760.04	2.0	1.8037	554.415922825304	1421.97802197802	
1732001299767.85	2.0	1.8022	554.877372100766	1414.65201465201	
1732001299775.67	2.0	1.8052	553.955240416574	1405.12820512821	
1732001299783.48	2.0	1.8037	554.415922825304	1392.67399267399	
1732001299791.29	2.0	1.8052	553.955240416574	1375.82417582418	
1732001299799.1	2.0	1.8067	553.495322964521	1356.04395604396	
1732001299806.92	2.0	1.8082	553.036168565424	1330.40293040293	
1732001299814.73	2.0	1.8112	552.120141342756	1300.3663003663	
1732001299822.54	2.0	1.8097	552.577775321877	1267.39926739927	
1732001299830.35	2.0	1.8157	550.751776174478	1235.16483516484	
1732001299838.17	2.0	1.8142	551.207143644582	1202.9304029304	
1732001299845.98	2.0	1.8202	549.390176903637	1169.96336996337	
1732001299853.79	2.0	1.8172	550.297160466652	1142.85714285714	
1732001299861.6	2.0	1.8232	548.486178148311	1118.68131868132	
1732001299869.42	2.0	1.8202	549.390176903637	1098.9010989011	
1732001299877.23	2.0	1.8262	547.585149490746	1085.71428571429	
1732001299885.04	2.0	1.8232	548.486178148311	1076.19047619048	
1732001299892.85	2.0	1.8262	547.585149490746	1070.32967032967	
1732001299900.67	2.0	1.8247	548.0352934729	1067.39926739927	
1732001299908.48	2.0	1.8247	548.0352934729	1066.66666666667	
1732001299916.29	2.0	1.8247	548.0352934729	1068.86446886447	
1732001299924.1	2.0	1.8247	548.0352934729	1071.06227106227	
1732001299931.92	2.0	1.8247	548.0352934729	1073.99267399267	
1732001299939.73	2.0	1.8232	548.486178148311	1076.19047619048	
1732001299947.54	2.0	1.8247	548.0352934729	1077.65567765568	
1732001299955.35	2.0	1.8217	548.937805346654	1077.65567765568	
1732001299963.17	2.0	1.8247	548.0352934729	1078.38827838828	
1732001299970.98	2.0	1.8217	548.937805346654	1079.85347985348	
1732001299978.79	2.0	1.8262	547.585149490746	1082.78388278388	
1732001299986.6	2.0	1.8217	548.937805346654	1083.51648351648	
1732001299994.42	2.0	1.8247	548.0352934729	1083.51648351648	
1732001300002.23	2.0	1.8217	548.937805346654	1084.24908424908	
1732001300010.04	2.0	1.8247	548.0352934729	1084.98168498169	
1732001300017.85	2.0	1.8217	548.937805346654	1088.64468864469	
1732001300025.67	2.0	1.8232	548.486178148311	1095.9706959707	
1732001300033.48	2.0	1.8217	548.937805346654	1105.49450549451	
1732001300041.29	2.0	1.8217	548.937805346654	1116.48351648352	
1732001300049.1	2.0	1.8217	548.937805346654	1128.93772893773	
1732001300056.92	2.0	1.8187	549.843294661022	1145.05494505495	
1732001300064.73	2.0	1.8202	549.390176903637	1167.76556776557	
1732001300072.54	2.0	1.8142	551.207143644582	1203.663003663	
1732001300080.35	2.0	1.8157	550.751776174478	1266.66666666667	
1732001300088.17	2.0	1.8067	553.495322964521	1360.43956043956	
1732001300095.98	2.0	1.8037	554.415922825304	1487.91208791209	
1732001300103.79	2.0	1.7917	558.129151085561	1643.95604395604	
1732001300111.6	2.0	1.7842	560.475283040018	1821.24542124542	
1732001300119.42	2.0	1.7677	565.706850709962	2006.59340659341	
1732001300127.23	2.0	1.7602	568.117259402341	2189.01098901099	
1732001300135.04	2.0	1.7437	573.493146756896	2353.11355311355	
1732001300142.85	2.0	1.7362	575.970510309872	2489.37728937729	
1732001300150.67	2.0	1.7257	579.474995653938	2591.20879120879	
1732001300158.48	2.0	1.7197	581.496772692911	2653.47985347985	
1732001300166.29	2.0	1.7152	583.022388059702	2673.99267399267	
1732001300174.1	2.0	1.7152	583.022388059702	2655.67765567766	
1732001300181.92	2.0	1.7167	582.51296091338	2602.1978021978	
1732001300189.73	2.0	1.7212	580.99000697188	2517.94871794872	
1732001300197.54	2.0	1.7302	577.967864986707	2409.52380952381	
1732001300205.35	2.0	1.7362	575.970510309872	2284.24908424908	
1732001300213.17	2.0	1.7497	571.526547408127	2147.25274725275	
1732001300220.98	2.0	1.7542	570.060426405199	2004.3956043956	
1732001300228.79	2.0	1.7692	565.22722134298	1861.53846153846	
1732001300236.6	2.0	1.7737	563.793200654	1720.87912087912	
1732001300244.42	2.0	1.7872	559.534467323187	1586.81318681319	
1732001300252.23	2.0	1.7932	557.6622797234	1460.07326007326	
1732001300260.04	2.0	1.8052	553.955240416574	1344.32234432234	
1732001300267.85	2.0	1.8082	553.036168565424	1238.82783882784	
1732001300275.67	2.0	1.8172	550.297160466652	1145.05494505495	
1732001300283.48	2.0	1.8217	548.937805346654	1064.46886446886	
1732001300291.29	2.0	1.8262	547.585149490746	996.336996336996	
1732001300299.1	2.0	1.8292	546.687076317516	943.589743589744	
1732001300306.92	2.0	1.8322	545.791944110905	905.494505494506	
1732001300314.73	2.0	1.8337	545.345476359274	879.120879120879	
1732001300322.54	2.0	1.8337	545.345476359274	864.468864468864	
1732001300330.35	2.0	1.8352	544.899738448126	863.736263736264	
1732001300338.17	2.0	1.8322	545.791944110905	876.923076923077	
1732001300345.98	2.0	1.8337	545.345476359274	903.296703296703	
1732001300353.79	2.0	1.8277	547.13574437818	939.92673992674	
1732001300361.6	2.0	1.8292	546.687076317516	983.150183150183	
1732001300369.42	2.0	1.8217	548.937805346654	1030.03663003663	
1732001300377.23	2.0	1.8232	548.486178148311	1083.51648351648	
1732001300385.04	2.0	1.8157	550.751776174478	1138.46153846154	
1732001300392.85	2.0	1.8157	550.751776174478	1191.94139194139	
1732001300400.67	2.0	1.8097	552.577775321877	1243.22344322344	
1732001300408.48	2.0	1.8082	553.036168565424	1290.10989010989	
1732001300416.29	2.0	1.8037	554.415922825304	1331.86813186813	
1732001300424.1	2.0	1.8022	554.877372100766	1366.30036630037	
1732001300431.92	2.0	1.7992	555.802578923966	1391.94139194139	
1732001300439.73	2.0	1.7962	556.730876294399	1408.79120879121	
1732001300447.54	2.0	1.7992	555.802578923966	1416.84981684982	
1732001300455.35	2.0	1.7947	557.196188778069	1418.31501831502	
1732001300463.17	2.0	1.7977	556.266340323747	1414.65201465201	
1732001300470.98	2.0	1.7947	557.196188778069	1402.9304029304	
1732001300478.79	2.0	1.8007	555.339590159382	1386.08058608059	
1732001300486.6	2.0	1.7977	556.266340323747	1364.10256410256	
1732001300494.42	2.0	1.8022	554.877372100766	1339.92673992674	
1732001300502.23	2.0	1.8007	555.339590159382	1312.82051282051	
1732001300510.04	2.0	1.8067	553.495322964521	1283.51648351648	
1732001300517.85	2.0	1.8052	553.955240416574	1254.21245421245	
1732001300525.67	2.0	1.8097	552.577775321877	1227.10622710623	
1732001300533.48	2.0	1.8097	552.577775321877	1200.7326007326	
1732001300541.29	2.0	1.8127	551.663264743201	1178.02197802198	
1732001300549.1	2.0	1.8142	551.207143644582	1154.57875457875	
1732001300556.92	2.0	1.8142	551.207143644582	1134.06593406593	
1732001300564.73	2.0	1.8172	550.297160466652	1113.55311355311	
1732001300572.54	2.0	1.8157	550.751776174478	1094.50549450549	
1732001300580.35	2.0	1.8187	549.843294661022	1078.38827838828	
1732001300588.17	2.0	1.8157	550.751776174478	1065.20146520147	
1732001300595.98	2.0	1.8202	549.390176903637	1054.21245421245	
1732001300603.79	2.0	1.8172	550.297160466652	1045.42124542125	
1732001300611.6	2.0	1.8217	548.937805346654	1040.29304029304	
1732001300619.42	2.0	1.8172	550.297160466652	1038.82783882784	
1732001300627.23	2.0	1.8217	548.937805346654	1040.29304029304	
1732001300635.04	2.0	1.8187	549.843294661022	1045.42124542125	
1732001300642.85	2.0	1.8202	549.390176903637	1052.74725274725	
1732001300650.67	2.0	1.8187	549.843294661022	1060.80586080586	
1732001300658.48	2.0	1.8187	549.843294661022	1067.39926739927	
1732001300666.29	2.0	1.8172	550.297160466652	1073.99267399267	
1732001300674.1	2.0	1.8172	550.297160466652	1082.78388278388	
1732001300681.92	2.0	1.8172	550.297160466652	1090.84249084249	
1732001300689.73	2.0	1.8157	550.751776174478	1100.3663003663	
1732001300697.54	2.0	1.8172	550.297160466652	1110.62271062271	
1732001300705.35	2.0	1.8112	552.120141342756	1120.14652014652	
1732001300713.17	2.0	1.8157	550.751776174478	1129.67032967033	
1732001300720.98	2.0	1.8112	552.120141342756	1135.53113553114	
1732001300728.79	2.0	1.8157	550.751776174478	1139.19413919414	
1732001300736.6	2.0	1.8097	552.577775321877	1142.85714285714	
1732001300744.42	2.0	1.8142	551.207143644582	1147.25274725275	
1732001300752.23	2.0	1.8112	552.120141342756	1153.11355311355	
1732001300760.04	2.0	1.8142	551.207143644582	1160.43956043956	
1732001300767.85	2.0	1.8097	552.577775321877	1172.16117216117	
1732001300775.67	2.0	1.8112	552.120141342756	1195.6043956044	
1732001300783.48	2.0	1.8082	553.036168565424	1239.56043956044	
1732001300791.29	2.0	1.8037	554.415922825304	1317.21611721612	
1732001300799.1	2.0	1.7992	555.802578923966	1431.50183150183	
1732001300806.92	2.0	1.7902	558.596804826276	1576.55677655678	
1732001300814.73	2.0	1.7812	561.419267909275	1744.32234432234	
1732001300822.54	2.0	1.7677	565.706850709962	1923.80952380952	
1732001300830.35	2.0	1.7587	568.60180815375	2104.7619047619	
1732001300838.17	2.0	1.7422	573.986913098381	2274.72527472527	
1732001300845.98	2.0	1.7332	576.96745903531	2422.71062271062	
1732001300853.79	2.0	1.7182	582.004423233617	2540.65934065934	
1732001300861.6	2.0	1.7137	583.532707008228	2621.24542124542	
1732001300869.42	2.0	1.7047	586.613480377779	2663.00366300366	
1732001300877.23	2.0	1.7062	586.097761106553	2665.20146520146	
1732001300885.04	2.0	1.7017	587.647646471176	2631.50183150183	
1732001300892.85	2.0	1.7092	585.069038146501	2565.56776556777	
1732001300900.67	2.0	1.7122	584.043920102792	2472.52747252747	
1732001300908.48	2.0	1.7227	580.484123759215	2358.97435897436	
1732001300916.29	2.0	1.7317	577.467228734769	2229.30402930403	
1732001300924.1	2.0	1.7422	573.986913098381	2090.10989010989	
1732001300931.92	2.0	1.7527	570.548296913334	1947.98534798535	
1732001300939.73	2.0	1.7617	567.633535789294	1808.05860805861	
1732001300947.54	2.0	1.7722	564.270398374901	1671.79487179487	
1732001300955.35	2.0	1.7797	561.892453784346	1543.58974358974	
1732001300963.17	2.0	1.7902	558.596804826276	1422.71062271062	
1732001300970.98	2.0	1.7947	557.196188778069	1306.95970695971	
1732001300978.79	2.0	1.8067	553.495322964521	1200.7326007326	
1732001300986.6	2.0	1.8082	553.036168565424	1106.95970695971	
1732001300994.42	2.0	1.8187	549.843294661022	1026.37362637363	
1732001301002.23	2.0	1.8187	549.843294661022	956.776556776557	
1732001301010.04	2.0	1.8262	547.585149490746	903.296703296703	
1732001301017.85	2.0	1.8247	548.0352934729	866.666666666667	
1732001301025.67	2.0	1.8292	546.687076317516	846.153846153846	
1732001301033.48	2.0	1.8277	547.13574437818	841.025641025641	
1732001301041.29	2.0	1.8277	547.13574437818	849.81684981685	
1732001301049.1	2.0	1.8262	547.585149490746	871.062271062271	
1732001301056.92	2.0	1.8232	548.486178148311	901.831501831502	
1732001301064.73	2.0	1.8232	548.486178148311	942.857142857143	
1732001301072.54	2.0	1.8172	550.297160466652	993.406593406593	
1732001301080.35	2.0	1.8172	550.297160466652	1047.61904761905	
1732001301088.17	2.0	1.8097	552.577775321877	1102.5641025641	
1732001301095.98	2.0	1.8112	552.120141342756	1156.77655677656	
1732001301103.79	2.0	1.8022	554.877372100766	1210.25641025641	
1732001301111.6	2.0	1.8037	554.415922825304	1259.34065934066	
1732001301119.42	2.0	1.7962	556.730876294399	1303.2967032967	
1732001301127.23	2.0	1.7977	556.266340323747	1339.92673992674	
1732001301135.04	2.0	1.7932	557.6622797234	1369.96336996337	
1732001301142.85	2.0	1.7947	557.196188778069	1391.94139194139	
1732001301150.67	2.0	1.7902	558.596804826276	1404.3956043956	
1732001301158.48	2.0	1.7917	558.129151085561	1411.72161172161	
1732001301166.29	2.0	1.7902	558.596804826276	1410.98901098901	
1732001301174.1	2.0	1.7902	558.596804826276	1404.3956043956	
1732001301181.92	2.0	1.7917	558.129151085561	1391.20879120879	
1732001301189.73	2.0	1.7917	558.129151085561	1371.42857142857	
1732001301197.54	2.0	1.7947	557.196188778069	1347.98534798535	
1732001301205.35	2.0	1.7947	557.196188778069	1322.34432234432	
1732001301213.17	2.0	1.7992	555.802578923966	1295.2380952381	
1732001301220.98	2.0	1.7977	556.266340323747	1268.13186813187	
1732001301228.79	2.0	1.8037	554.415922825304	1240.29304029304	
1732001301236.6	2.0	1.8007	555.339590159382	1213.18681318681	
1732001301244.42	2.0	1.8067	553.495322964521	1189.01098901099	
1732001301252.23	2.0	1.8037	554.415922825304	1168.49816849817	
1732001301260.04	2.0	1.8082	553.036168565424	1150.18315018315	
1732001301267.85	2.0	1.8067	553.495322964521	1134.79853479853	
1732001301275.67	2.0	1.8082	553.036168565424	1121.61172161172	
1732001301283.48	2.0	1.8082	553.036168565424	1112.82051282051	
1732001301291.29	2.0	1.8097	552.577775321877	1106.22710622711	
1732001301299.1	2.0	1.8097	552.577775321877	1098.9010989011	
1732001301306.92	2.0	1.8097	552.577775321877	1095.2380952381	
1732001301314.73	2.0	1.8112	552.120141342756	1093.77289377289	
1732001301322.54	2.0	1.8097	552.577775321877	1094.50549450549	
1732001301330.35	2.0	1.8127	551.663264743201	1095.9706959707	
1732001301338.17	2.0	1.8082	553.036168565424	1101.0989010989	
1732001301345.98	2.0	1.8112	552.120141342756	1106.22710622711	
1732001301353.79	2.0	1.8067	553.495322964521	1110.62271062271	
1732001301361.6	2.0	1.8112	552.120141342756	1114.28571428571	
1732001301369.42	2.0	1.8067	553.495322964521	1118.68131868132	
1732001301377.23	2.0	1.8097	552.577775321877	1120.87912087912	
1732001301385.04	2.0	1.8067	553.495322964521	1123.80952380952	
1732001301392.85	2.0	1.8097	552.577775321877	1128.93772893773	
1732001301400.67	2.0	1.8067	553.495322964521	1131.13553113553	
1732001301408.48	2.0	1.8082	553.036168565424	1134.06593406593	
1732001301416.29	2.0	1.8067	553.495322964521	1136.26373626374	
1732001301424.1	2.0	1.8067	553.495322964521	1138.46153846154	
1732001301431.92	2.0	1.8082	553.036168565424	1139.19413919414	
1732001301439.73	2.0	1.8067	553.495322964521	1138.46153846154	
1732001301447.54	2.0	1.8082	553.036168565424	1137.72893772894	
1732001301455.35	2.0	1.8052	553.955240416574	1139.19413919414	
1732001301463.17	2.0	1.8082	553.036168565424	1145.78754578755	
1732001301470.98	2.0	1.8037	554.415922825304	1155.31135531136	
1732001301478.79	2.0	1.8067	553.495322964521	1171.42857142857	
1732001301486.6	2.0	1.8022	554.877372100766	1205.86080586081	
1732001301494.42	2.0	1.8037	554.415922825304	1265.20146520147	
1732001301502.23	2.0	1.7947	557.196188778069	1359.70695970696	
1732001301510.04	2.0	1.7917	558.129151085561	1487.91208791209	
1732001301517.85	2.0	1.7797	561.892453784346	1644.68864468864	
1732001301525.67	2.0	1.7707	564.748404585757	1819.04761904762	
1732001301533.48	2.0	1.7572	569.087184156613	2001.4652014652	
1732001301541.29	2.0	1.7467	572.508158241255	2177.28937728938	
1732001301549.1	2.0	1.7347	576.468553640399	2335.53113553114	
1732001301556.92	2.0	1.7227	580.484123759215	2466.66666666667	
1732001301564.73	2.0	1.7137	583.532707008228	2561.90476190476	
1732001301572.54	2.0	1.7062	586.097761106553	2617.58241758242	
1732001301580.35	2.0	1.7062	586.097761106553	2632.96703296703	
1732001301588.17	2.0	1.7032	587.13010803194	2608.05860805861	
1732001301595.98	2.0	1.7092	585.069038146501	2549.45054945055	
1732001301603.79	2.0	1.7122	584.043920102792	2462.27106227106	
1732001301611.6	2.0	1.7227	580.484123759215	2357.50915750916	
1732001301619.42	2.0	1.7287	578.469370046856	2235.89743589744	
1732001301627.23	2.0	1.7407	574.481530418797	2101.0989010989	
1732001301635.04	2.0	1.7482	572.016931701178	1961.17216117216	
1732001301642.85	2.0	1.7617	567.633535789294	1818.31501831502	
1732001301650.67	2.0	1.7677	565.706850709962	1675.45787545788	
1732001301658.48	2.0	1.7797	561.892453784346	1537.72893772894	
1732001301666.29	2.0	1.7872	559.534467323187	1407.32600732601	
1732001301674.1	2.0	1.7962	556.730876294399	1287.17948717949	
1732001301681.92	2.0	1.8022	554.877372100766	1179.48717948718	
1732001301689.73	2.0	1.8067	553.495322964521	1086.44688644689	
1732001301697.54	2.0	1.8142	551.207143644582	1007.32600732601	
1732001301705.35	2.0	1.8142	551.207143644582	942.857142857143	
1732001301713.17	2.0	1.8202	549.390176903637	895.238095238095	
1732001301720.98	2.0	1.8187	549.843294661022	861.538461538462	
1732001301728.79	2.0	1.8247	548.0352934729	842.490842490842	
1732001301736.6	2.0	1.8217	548.937805346654	836.630036630037	
1732001301744.42	2.0	1.8247	548.0352934729	843.223443223443	
1732001301752.23	2.0	1.8187	549.843294661022	862.271062271062	
1732001301760.04	2.0	1.8202	549.390176903637	892.307692307692	
1732001301767.85	2.0	1.8157	550.751776174478	930.40293040293	
1732001301775.67	2.0	1.8157	550.751776174478	974.358974358974	
1732001301783.48	2.0	1.8112	552.120141342756	1021.97802197802	
1732001301791.29	2.0	1.8082	553.036168565424	1073.26007326007	
1732001301799.1	2.0	1.8052	553.955240416574	1125.27472527473	
1732001301806.92	2.0	1.8007	555.339590159382	1175.82417582418	
1732001301814.73	2.0	1.7992	555.802578923966	1224.90842490842	
1732001301822.54	2.0	1.7947	557.196188778069	1270.32967032967	
1732001301830.35	2.0	1.7947	557.196188778069	1309.89010989011	
1732001301838.17	2.0	1.7902	558.596804826276	1342.85714285714	
1732001301845.98	2.0	1.7902	558.596804826276	1367.03296703297	
1732001301853.79	2.0	1.7857	560.00448003584	1381.68498168498	
1732001301861.6	2.0	1.7902	558.596804826276	1388.27838827839	
1732001301869.42	2.0	1.7857	560.00448003584	1386.81318681319	
1732001301877.23	2.0	1.7902	558.596804826276	1377.28937728938	
1732001301885.04	2.0	1.7872	559.534467323187	1361.17216117216	
1732001301892.85	2.0	1.7932	557.6622797234	1340.65934065934	
1732001301900.67	2.0	1.7917	558.129151085561	1318.68131868132	
1732001301908.48	2.0	1.7947	557.196188778069	1297.4358974359	
1732001301916.29	2.0	1.7947	557.196188778069	1274.72527472527	
1732001301924.1	2.0	1.7962	556.730876294399	1253.47985347985	
1732001301931.92	2.0	1.7977	556.266340323747	1231.50183150183	
1732001301939.73	2.0	1.7977	556.266340323747	1210.25641025641	
1732001301947.54	2.0	1.8007	555.339590159382	1189.01098901099	
1732001301955.35	2.0	1.7992	555.802578923966	1169.96336996337	
1732001301963.17	2.0	1.8037	554.415922825304	1152.38095238095	
1732001301970.98	2.0	1.8007	555.339590159382	1139.19413919414	
1732001301978.79	2.0	1.8052	553.955240416574	1129.67032967033	
1732001301986.6	2.0	1.8007	555.339590159382	1123.07692307692	
1732001301994.42	2.0	1.8052	553.955240416574	1117.21611721612	
1732001302002.23	2.0	1.8022	554.877372100766	1112.08791208791	
1732001302010.04	2.0	1.8067	553.495322964521	1107.69230769231	
1732001302017.85	2.0	1.8037	554.415922825304	1103.2967032967	
1732001302025.67	2.0	1.8067	553.495322964521	1100.3663003663	
1732001302033.48	2.0	1.8037	554.415922825304	1099.6336996337	
1732001302041.29	2.0	1.8052	553.955240416574	1103.2967032967	
1732001302049.1	2.0	1.8037	554.415922825304	1109.15750915751	
1732001302056.92	2.0	1.8037	554.415922825304	1115.75091575092	
1732001302064.73	2.0	1.8037	554.415922825304	1120.87912087912	
1732001302072.54	2.0	1.8022	554.877372100766	1123.80952380952	
1732001302080.35	2.0	1.8037	554.415922825304	1125.27472527473	
1732001302088.17	2.0	1.8007	555.339590159382	1125.27472527473	
1732001302095.98	2.0	1.8037	554.415922825304	1127.47252747253	
1732001302103.79	2.0	1.8007	555.339590159382	1129.67032967033	
1732001302111.6	2.0	1.8037	554.415922825304	1135.53113553114	
1732001302119.42	2.0	1.7992	555.802578923966	1142.85714285714	
1732001302127.23	2.0	1.8037	554.415922825304	1148.71794871795	
1732001302135.04	2.0	1.7992	555.802578923966	1152.38095238095	
1732001302142.85	2.0	1.8022	554.877372100766	1158.97435897436	
1732001302150.67	2.0	1.7992	555.802578923966	1164.83516483516	
1732001302158.48	2.0	1.8022	554.877372100766	1171.42857142857	
1732001302166.29	2.0	1.8007	555.339590159382	1179.48717948718	
1732001302174.1	2.0	1.7992	555.802578923966	1193.40659340659	
1732001302181.92	2.0	1.7992	555.802578923966	1218.31501831502	
1732001302189.73	2.0	1.7962	556.730876294399	1265.20146520147	
1732001302197.54	2.0	1.7932	557.6622797234	1340.65934065934	
1732001302205.35	2.0	1.7857	560.00448003584	1444.68864468864	
1732001302213.17	2.0	1.7812	561.419267909275	1573.62637362637	
1732001302220.98	2.0	1.7692	565.22722134298	1722.34432234432	
1732001302228.79	2.0	1.7647	566.668555561852	1879.85347985348	
1732001302236.6	2.0	1.7497	571.526547408127	2035.16483516483	
1732001302244.42	2.0	1.7452	573.000229200092	2177.28937728938	
1732001302252.23	2.0	1.7317	577.467228734769	2299.6336996337	
1732001302260.04	2.0	1.7287	578.469370046856	2394.87179487179	
1732001302267.85	2.0	1.7197	581.496772692911	2457.14285714286	
1732001302275.67	2.0	1.7182	582.004423233617	2483.51648351648	
1732001302283.48	2.0	1.7152	583.022388059702	2471.79487179487	
1732001302291.29	2.0	1.7182	582.004423233617	2428.57142857143	
1732001302299.1	2.0	1.7212	580.99000697188	2358.24175824176	
1732001302306.92	2.0	1.7257	579.474995653938	2265.93406593407	
1732001302314.73	2.0	1.7332	576.96745903531	2158.24175824176	
1732001302322.54	2.0	1.7392	574.977000919963	2040.29304029304	
1732001302330.35	2.0	1.7497	571.526547408127	1915.01831501831	
1732001302338.17	2.0	1.7557	569.573389531241	1786.08058608059	
1732001302345.98	2.0	1.7692	565.22722134298	1657.87545787546	
1732001302353.79	2.0	1.7737	563.793200654	1533.33333333333	
1732001302361.6	2.0	1.7842	560.475283040018	1415.38461538462	
1732001302369.42	2.0	1.7872	559.534467323187	1304.0293040293	
1732001302377.23	2.0	1.7977	556.266340323747	1202.1978021978	
1732001302385.04	2.0	1.7992	555.802578923966	1115.75091575092	
1732001302392.85	2.0	1.8082	553.036168565424	1041.75824175824	
1732001302400.67	2.0	1.8082	553.036168565424	978.754578754579	
1732001302408.48	2.0	1.8142	551.207143644582	928.205128205128	
1732001302416.29	2.0	1.8127	551.663264743201	890.842490842491	
1732001302424.1	2.0	1.8157	550.751776174478	866.666666666667	
1732001302431.92	2.0	1.8157	550.751776174478	855.677655677656	
1732001302439.73	2.0	1.8157	550.751776174478	857.875457875458	
1732001302447.54	2.0	1.8157	550.751776174478	876.190476190476	
1732001302455.35	2.0	1.8112	552.120141342756	906.959706959707	
1732001302463.17	2.0	1.8127	551.663264743201	943.589743589744	
1732001302470.98	2.0	1.8067	553.495322964521	985.347985347985	
1732001302478.79	2.0	1.8067	553.495322964521	1034.43223443223	
1732001302486.6	2.0	1.8007	555.339590159382	1087.91208791209	
1732001302494.42	2.0	1.8007	555.339590159382	1139.92673992674	
1732001302502.23	2.0	1.7932	557.6622797234	1187.54578754579	
1732001302510.04	2.0	1.7947	557.196188778069	1230.76923076923	
1732001302517.85	2.0	1.7902	558.596804826276	1270.32967032967	
1732001302525.67	2.0	1.7902	558.596804826276	1304.7619047619	
1732001302533.48	2.0	1.7857	560.00448003584	1334.06593406593	
1732001302541.29	2.0	1.7872	559.534467323187	1356.77655677656	
1732001302549.1	2.0	1.7842	560.475283040018	1372.16117216117	
1732001302556.92	2.0	1.7842	560.475283040018	1380.21978021978	
1732001302564.73	2.0	1.7857	560.00448003584	1381.68498168498	
1732001302572.54	2.0	1.7827	560.946878330622	1375.09157509157	
1732001302580.35	2.0	1.7857	560.00448003584	1363.36996336996	
1732001302588.17	2.0	1.7842	560.475283040018	1348.71794871795	
1732001302595.98	2.0	1.7887	559.065242913848	1329.67032967033	
1732001302603.79	2.0	1.7857	560.00448003584	1310.62271062271	
1732001302611.6	2.0	1.7902	558.596804826276	1290.84249084249	
1732001302619.42	2.0	1.7887	559.065242913848	1268.86446886447	
1732001302627.23	2.0	1.7932	557.6622797234	1246.15384615385	
1732001302635.04	2.0	1.7902	558.596804826276	1224.90842490842	
1732001302642.85	2.0	1.7962	556.730876294399	1205.12820512821	
1732001302650.67	2.0	1.7932	557.6622797234	1187.54578754579	
1732001302658.48	2.0	1.7962	556.730876294399	1172.16117216117	
1732001302666.29	2.0	1.7962	556.730876294399	1159.70695970696	
1732001302674.1	2.0	1.7977	556.266340323747	1150.18315018315	
1732001302681.92	2.0	1.7977	556.266340323747	1144.32234432234	
1732001302689.73	2.0	1.7962	556.730876294399	1139.92673992674	
1732001302697.54	2.0	1.7977	556.266340323747	1136.26373626374	
1732001302705.35	2.0	1.7962	556.730876294399	1136.99633699634	
1732001302713.17	2.0	1.7992	555.802578923966	1139.92673992674	
1732001302720.98	2.0	1.7947	557.196188778069	1144.32234432234	
1732001302728.79	2.0	1.7992	555.802578923966	1150.18315018315	
1732001302736.6	2.0	1.7947	557.196188778069	1158.97435897436	
1732001302744.42	2.0	1.7977	556.266340323747	1165.56776556777	
1732001302752.23	2.0	1.7932	557.6622797234	1172.89377289377	
1732001302760.04	2.0	1.7962	556.730876294399	1178.02197802198	
1732001302767.85	2.0	1.7932	557.6622797234	1182.41758241758	
1732001302775.67	2.0	1.7962	556.730876294399	1186.81318681319	
1732001302783.48	2.0	1.7932	557.6622797234	1191.94139194139	
1732001302791.29	2.0	1.7947	557.196188778069	1197.8021978022	
1732001302799.1	2.0	1.7947	557.196188778069	1200.7326007326	
1732001302806.92	2.0	1.7932	557.6622797234	1205.12820512821	
1732001302814.73	2.0	1.7947	557.196188778069	1207.32600732601	
1732001302822.54	2.0	1.7932	557.6622797234	1208.05860805861	
1732001302830.35	2.0	1.7947	557.196188778069	1213.18681318681	
1732001302838.17	2.0	1.7917	558.129151085561	1218.31501831502	
1732001302845.98	2.0	1.7947	557.196188778069	1224.90842490842	
1732001302853.79	2.0	1.7902	558.596804826276	1237.36263736264	
1732001302861.6	2.0	1.7917	558.129151085561	1261.53846153846	
1732001302869.42	2.0	1.7857	560.00448003584	1304.0293040293	
1732001302877.23	2.0	1.7872	559.534467323187	1372.16117216117	
1732001302885.04	2.0	1.7782	562.366437970982	1470.32967032967	
1732001302892.85	2.0	1.7752	563.316809373592	1594.87179487179	
1732001302900.67	2.0	1.7647	566.668555561852	1738.46153846154	
1732001302908.48	2.0	1.7572	569.087184156613	1889.37728937729	
1732001302916.29	2.0	1.7467	572.508158241255	2035.89743589744	
1732001302924.1	2.0	1.7392	574.977000919963	2172.16117216117	
1732001302931.92	2.0	1.7302	577.967864986707	2290.10989010989	
1732001302939.73	2.0	1.7227	580.484123759215	2379.48717948718	
1732001302947.54	2.0	1.7182	582.004423233617	2438.82783882784	
1732001302955.35	2.0	1.7122	584.043920102792	2468.86446886447	
1732001302963.17	2.0	1.7137	583.532707008228	2467.39926739927	
1732001302970.98	2.0	1.7122	584.043920102792	2433.69963369963	
1732001302978.79	2.0	1.7182	582.004423233617	2370.69597069597	
1732001302986.6	2.0	1.7182	582.004423233617	2282.78388278388	
1732001302994.42	2.0	1.7287	578.469370046856	2178.75457875458	
1732001303002.23	2.0	1.7347	576.468553640399	2061.53846153846	
1732001303010.04	2.0	1.7467	572.508158241255	1938.46153846154	
1732001303017.85	2.0	1.7512	571.037003197807	1812.45421245421	
1732001303025.67	2.0	1.7632	567.150635208712	1687.91208791209	
1732001303033.48	2.0	1.7677	565.706850709962	1563.36996336996	
1732001303041.29	2.0	1.7767	562.841222491135	1443.95604395604	
1732001303049.1	2.0	1.7827	560.946878330622	1329.67032967033	
1732001303056.92	2.0	1.7902	558.596804826276	1225.64102564103	
1732001303064.73	2.0	1.7962	556.730876294399	1133.33333333333	
1732001303072.54	2.0	1.7992	555.802578923966	1054.94505494505	
1732001303080.35	2.0	1.8052	553.955240416574	991.208791208791	
1732001303088.17	2.0	1.8052	553.955240416574	941.391941391941	
1732001303095.98	2.0	1.8097	552.577775321877	905.494505494506	
1732001303103.79	2.0	1.8082	553.036168565424	884.981684981685	
1732001303111.6	2.0	1.8127	551.663264743201	876.190476190476	
1732001303119.42	2.0	1.8082	553.036168565424	879.85347985348	
1732001303127.23	2.0	1.8112	552.120141342756	893.772893772894	
1732001303135.04	2.0	1.8052	553.955240416574	917.216117216117	
1732001303142.85	2.0	1.8067	553.495322964521	947.252747252747	
1732001303150.67	2.0	1.8022	554.877372100766	985.347985347985	
1732001303158.48	2.0	1.8022	554.877372100766	1029.30402930403	
1732001303166.29	2.0	1.7977	556.266340323747	1074.72527472527	
1732001303174.1	2.0	1.7947	557.196188778069	1119.41391941392	
1732001303181.92	2.0	1.7917	558.129151085561	1163.36996336996	
1732001303189.73	2.0	1.7887	559.065242913848	1205.86080586081	
1732001303197.54	2.0	1.7887	559.065242913848	1244.68864468864	
1732001303205.35	2.0	1.7842	560.475283040018	1278.38827838828	
1732001303213.17	2.0	1.7857	560.00448003584	1304.7619047619	
1732001303220.98	2.0	1.7797	561.892453784346	1325.27472527473	
1732001303228.79	2.0	1.7827	560.946878330622	1341.39194139194	
1732001303236.6	2.0	1.7782	562.366437970982	1350.91575091575	
1732001303244.42	2.0	1.7827	560.946878330622	1354.57875457875	
1732001303252.23	2.0	1.7782	562.366437970982	1353.11355311355	
1732001303260.04	2.0	1.7842	560.475283040018	1347.98534798535	
1732001303267.85	2.0	1.7797	561.892453784346	1341.39194139194	
1732001303275.67	2.0	1.7842	560.475283040018	1328.93772893773	
1732001303283.48	2.0	1.7827	560.946878330622	1312.82051282051	
1732001303291.29	2.0	1.7857	560.00448003584	1296.7032967033	
1732001303299.1	2.0	1.7857	560.00448003584	1282.05128205128	
1732001303306.92	2.0	1.7872	559.534467323187	1270.32967032967	
1732001303314.73	2.0	1.7872	559.534467323187	1260.80586080586	
1732001303322.54	2.0	1.7857	560.00448003584	1252.74725274725	
1732001303330.35	2.0	1.7887	559.065242913848	1244.68864468864	
1732001303338.17	2.0	1.7872	559.534467323187	1237.36263736264	
1732001303345.98	2.0	1.7902	558.596804826276	1230.03663003663	
1732001303353.79	2.0	1.7872	559.534467323187	1222.71062271062	
1732001303361.6	2.0	1.7917	558.129151085561	1217.58241758242	
1732001303369.42	2.0	1.7872	559.534467323187	1215.38461538462	
1732001303377.23	2.0	1.7917	558.129151085561	1214.65201465201	
1732001303385.04	2.0	1.7887	559.065242913848	1212.45421245421	
1732001303392.85	2.0	1.7917	558.129151085561	1209.52380952381	
1732001303400.67	2.0	1.7887	559.065242913848	1208.05860805861	
1732001303408.48	2.0	1.7917	558.129151085561	1208.79120879121	
1732001303416.29	2.0	1.7887	559.065242913848	1211.72161172161	
1732001303424.1	2.0	1.7902	558.596804826276	1216.11721611722	
1732001303431.92	2.0	1.7902	558.596804826276	1219.78021978022	
1732001303439.73	2.0	1.7887	559.065242913848	1222.71062271062	
1732001303447.54	2.0	1.7902	558.596804826276	1224.17582417582	
1732001303455.35	2.0	1.7887	559.065242913848	1224.90842490842	
1732001303463.17	2.0	1.7902	558.596804826276	1224.90842490842	
1732001303470.98	2.0	1.7872	559.534467323187	1224.90842490842	
1732001303478.79	2.0	1.7917	558.129151085561	1224.17582417582	
1732001303486.6	2.0	1.7872	559.534467323187	1224.17582417582	
1732001303494.42	2.0	1.7917	558.129151085561	1226.37362637363	
1732001303502.23	2.0	1.7872	559.534467323187	1227.10622710623	
1732001303510.04	2.0	1.7917	558.129151085561	1231.50183150183	
1732001303517.85	2.0	1.7872	559.534467323187	1241.02564102564	
1732001303525.67	2.0	1.7902	558.596804826276	1258.60805860806	
1732001303533.48	2.0	1.7857	560.00448003584	1291.57509157509	
1732001303541.29	2.0	1.7857	560.00448003584	1351.64835164835	
1732001303549.1	2.0	1.7797	561.892453784346	1446.88644688645	
1732001303556.92	2.0	1.7722	564.270398374901	1575.82417582418	
1732001303564.73	2.0	1.7647	566.668555561852	1733.33333333333	
1732001303572.54	2.0	1.7542	570.060426405199	1912.08791208791	
1732001303580.35	2.0	1.7437	573.493146756896	2101.0989010989	
1732001303588.17	2.0	1.7302	577.967864986707	2286.44688644689	
1732001303595.98	2.0	1.7212	580.99000697188	2457.14285714286	
1732001303603.79	2.0	1.7062	586.097761106553	2603.663003663	
1732001303611.6	2.0	1.7017	587.647646471176	2716.48351648352	
1732001303619.42	2.0	1.6882	592.346878331951	2790.47619047619	
1732001303627.23	2.0	1.6897	591.821033319524	2790.47619047619	
1732001303635.04	2.0	1.6852	593.401376691194	2790.47619047619	
1732001303642.85	2.0	1.6897	591.821033319524	2774.35897435897	
1732001303650.67	2.0	1.6897	591.821033319524	2712.08791208791	
1732001303658.48	2.0	1.6987	588.68546535586	2616.84981684982	
1732001303666.29	2.0	1.7032	587.13010803194	2499.6336996337	
1732001303674.1	2.0	1.7152	583.022388059702	2365.56776556777	
1732001303681.92	2.0	1.7242	579.979120751653	2222.71062271062	
1732001303689.73	2.0	1.7332	576.96745903531	2074.72527472527	
1732001303697.54	2.0	1.7437	573.493146756896	1926.00732600733	
1732001303705.35	2.0	1.7512	571.037003197807	1776.55677655678	
1732001303713.17	2.0	1.7632	567.150635208712	1630.76923076923	
1732001303720.98	2.0	1.7692	565.22722134298	1492.30769230769	
1732001303728.79	2.0	1.7812	561.419267909275	1361.17216117216	
1732001303736.6	2.0	1.7842	560.475283040018	1240.29304029304	
1732001303744.42	2.0	1.7947	557.196188778069	1132.60073260073	
1732001303752.23	2.0	1.7962	556.730876294399	1041.75824175824	
1732001303760.04	2.0	1.8052	553.955240416574	967.765567765568	
1732001303767.85	2.0	1.8052	553.955240416574	907.692307692308	
1732001303775.67	2.0	1.8097	552.577775321877	865.201465201465	
1732001303783.48	2.0	1.8097	552.577775321877	841.025641025641	
1732001303791.29	2.0	1.8112	552.120141342756	831.501831501831	
1732001303799.1	2.0	1.8097	552.577775321877	835.897435897436	
1732001303806.92	2.0	1.8097	552.577775321877	850.549450549451	
1732001303814.73	2.0	1.8067	553.495322964521	873.260073260073	
1732001303822.54	2.0	1.8052	553.955240416574	903.296703296703	
1732001303830.35	2.0	1.8037	554.415922825304	939.92673992674	
1732001303838.17	2.0	1.7977	556.266340323747	979.487179487179	
1732001303845.98	2.0	1.7992	555.802578923966	1022.71062271062	
1732001303853.79	2.0	1.7932	557.6622797234	1065.93406593407	
1732001303861.6	2.0	1.7947	557.196188778069	1105.49450549451	
1732001303869.42	2.0	1.7872	559.534467323187	1146.52014652015	
1732001303877.23	2.0	1.7902	558.596804826276	1186.81318681319	
1732001303885.04	2.0	1.7827	560.946878330622	1223.44322344322	
1732001303892.85	2.0	1.7857	560.00448003584	1253.47985347985	
1732001303900.67	2.0	1.7812	561.419267909275	1274.72527472527	
1732001303908.48	2.0	1.7827	560.946878330622	1288.64468864469	
1732001303916.29	2.0	1.7797	561.892453784346	1295.2380952381	
1732001303924.1	2.0	1.7812	561.419267909275	1295.2380952381	
1732001303931.92	2.0	1.7812	561.419267909275	1290.84249084249	
1732001303939.73	2.0	1.7812	561.419267909275	1281.31868131868	
1732001303947.54	2.0	1.7827	560.946878330622	1268.86446886447	
1732001303955.35	2.0	1.7827	560.946878330622	1254.94505494506	
1732001303963.17	2.0	1.7857	560.00448003584	1241.02564102564	
1732001303970.98	2.0	1.7827	560.946878330622	1224.90842490842	
1732001303978.79	2.0	1.7872	559.534467323187	1208.05860805861	
1732001303986.6	2.0	1.7842	560.475283040018	1192.67399267399	
1732001303994.42	2.0	1.7887	559.065242913848	1180.21978021978	
1732001304002.23	2.0	1.7857	560.00448003584	1168.49816849817	
1732001304010.04	2.0	1.7902	558.596804826276	1159.70695970696	
1732001304017.85	2.0	1.7872	559.534467323187	1153.84615384615	
1732001304025.67	2.0	1.7902	558.596804826276	1150.18315018315	
1732001304033.48	2.0	1.7872	559.534467323187	1149.45054945055	
1732001304041.29	2.0	1.7902	558.596804826276	1150.91575091575	
1732001304049.1	2.0	1.7872	559.534467323187	1153.11355311355	
1732001304056.92	2.0	1.7887	559.065242913848	1153.84615384615	
1732001304064.73	2.0	1.7887	559.065242913848	1153.84615384615	
1732001304072.54	2.0	1.7872	559.534467323187	1158.97435897436	
1732001304080.35	2.0	1.7887	559.065242913848	1165.56776556777	
1732001304088.17	2.0	1.7872	559.534467323187	1169.23076923077	
1732001304095.98	2.0	1.7887	559.065242913848	1171.42857142857	
1732001304103.79	2.0	1.7857	560.00448003584	1172.16117216117	
1732001304111.6	2.0	1.7887	559.065242913848	1172.89377289377	
1732001304119.42	2.0	1.7857	560.00448003584	1172.89377289377	
1732001304127.23	2.0	1.7887	559.065242913848	1174.35897435897	
1732001304135.04	2.0	1.7857	560.00448003584	1175.09157509158	
1732001304142.85	2.0	1.7887	559.065242913848	1177.28937728938	
1732001304150.67	2.0	1.7857	560.00448003584	1179.48717948718	
1732001304158.48	2.0	1.7887	559.065242913848	1183.15018315018	
1732001304166.29	2.0	1.7857	560.00448003584	1187.54578754579	
1732001304174.1	2.0	1.7872	559.534467323187	1193.40659340659	
1732001304181.92	2.0	1.7857	560.00448003584	1203.663003663	
1732001304189.73	2.0	1.7842	560.475283040018	1217.58241758242	
1732001304197.54	2.0	1.7842	560.475283040018	1238.09523809524	
1732001304205.35	2.0	1.7812	561.419267909275	1276.19047619048	
1732001304213.17	2.0	1.7812	561.419267909275	1341.39194139194	
1732001304220.98	2.0	1.7737	563.793200654	1441.02564102564	
1732001304228.79	2.0	1.7692	565.22722134298	1576.55677655678	
1732001304236.6	2.0	1.7572	569.087184156613	1739.92673992674	
1732001304244.42	2.0	1.7512	571.037003197807	1919.41391941392	
1732001304252.23	2.0	1.7347	576.468553640399	2103.2967032967	
1732001304260.04	2.0	1.7287	578.469370046856	2280.58608058608	
1732001304267.85	2.0	1.7137	583.532707008228	2441.02564102564	
1732001304275.67	2.0	1.7062	586.097761106553	2571.42857142857	
1732001304283.48	2.0	1.6957	589.726956419178	2667.39926739927	
1732001304291.29	2.0	1.6912	591.296121097446	2724.54212454212	
1732001304299.1	2.0	1.6867	592.873658623347	2744.32234432234	
1732001304306.92	2.0	1.6867	592.873658623347	2726.00732600733	
1732001304314.73	2.0	1.6897	591.821033319524	2673.26007326007	
1732001304322.54	2.0	1.6942	590.249085113918	2591.94139194139	
1732001304330.35	2.0	1.7017	587.647646471176	2486.44688644689	
1732001304338.17	2.0	1.7077	585.582947824559	2362.63736263736	
1732001304345.98	2.0	1.7197	581.496772692911	2227.10622710623	
1732001304353.79	2.0	1.7257	579.474995653938	2087.91208791209	
1732001304361.6	2.0	1.7392	574.977000919963	1946.52014652015	
1732001304369.42	2.0	1.7452	573.000229200092	1807.32600732601	
1732001304377.23	2.0	1.7572	569.087184156613	1673.26007326007	
1732001304385.04	2.0	1.7617	567.633535789294	1547.98534798535	
1732001304392.85	2.0	1.7737	563.793200654	1432.23443223443	
1732001304400.67	2.0	1.7752	563.316809373592	1326.73992673993	
1732001304408.48	2.0	1.7842	560.475283040018	1232.23443223443	
1732001304416.29	2.0	1.7872	559.534467323187	1147.25274725275	
1732001304424.1	2.0	1.7932	557.6622797234	1073.26007326007	
1732001304431.92	2.0	1.7947	557.196188778069	1010.25641025641	
1732001304439.73	2.0	1.7977	556.266340323747	959.70695970696	
1732001304447.54	2.0	1.8007	555.339590159382	921.611721611722	
1732001304455.35	2.0	1.8007	555.339590159382	896.703296703297	
1732001304463.17	2.0	1.8037	554.415922825304	884.981684981685	
1732001304470.98	2.0	1.7992	555.802578923966	886.446886446887	
1732001304478.79	2.0	1.8022	554.877372100766	899.6336996337	
1732001304486.6	2.0	1.7962	556.730876294399	923.809523809524	
1732001304494.42	2.0	1.7977	556.266340323747	959.70695970696	
1732001304502.23	2.0	1.7917	558.129151085561	1004.3956043956	
1732001304510.04	2.0	1.7917	558.129151085561	1053.47985347985	
1732001304517.85	2.0	1.7857	560.00448003584	1105.49450549451	
1732001304525.67	2.0	1.7857	560.00448003584	1158.24175824176	
1732001304533.48	2.0	1.7797	561.892453784346	1210.25641025641	
1732001304541.29	2.0	1.7797	561.892453784346	1255.67765567766	
1732001304549.1	2.0	1.7752	563.316809373592	1295.2380952381	
1732001304556.92	2.0	1.7752	563.316809373592	1327.47252747253	
1732001304564.73	2.0	1.7737	563.793200654	1352.38095238095	
1732001304572.54	2.0	1.7722	564.270398374901	1369.23076923077	
1732001304580.35	2.0	1.7722	564.270398374901	1380.21978021978	
1732001304588.17	2.0	1.7707	564.748404585757	1386.08058608059	
1732001304595.98	2.0	1.7722	564.270398374901	1383.15018315018	
1732001304603.79	2.0	1.7692	565.22722134298	1374.35897435897	
1732001304611.6	2.0	1.7737	563.793200654	1357.50915750916	
1732001304619.42	2.0	1.7722	564.270398374901	1335.53113553114	
1732001304627.23	2.0	1.7782	562.366437970982	1309.15750915751	
1732001304635.04	2.0	1.7752	563.316809373592	1281.31868131868	
1732001304642.85	2.0	1.7797	561.892453784346	1252.01465201465	
1732001304650.67	2.0	1.7782	562.366437970982	1225.64102564103	
1732001304658.48	2.0	1.7827	560.946878330622	1204.3956043956	
1732001304666.29	2.0	1.7812	561.419267909275	1184.61538461538	
1732001304674.1	2.0	1.7842	560.475283040018	1167.03296703297	
1732001304681.92	2.0	1.7842	560.475283040018	1152.38095238095	
1732001304689.73	2.0	1.7842	560.475283040018	1139.19413919414	
1732001304697.54	2.0	1.7857	560.00448003584	1124.54212454212	
1732001304705.35	2.0	1.7857	560.00448003584	1109.15750915751	
1732001304713.17	2.0	1.7872	559.534467323187	1098.1684981685	
1732001304720.98	2.0	1.7857	560.00448003584	1091.57509157509	
1732001304728.79	2.0	1.7887	559.065242913848	1087.91208791209	
1732001304736.6	2.0	1.7857	560.00448003584	1084.24908424908	
1732001304744.42	2.0	1.7902	558.596804826276	1083.51648351648	
1732001304752.23	2.0	1.7842	560.475283040018	1084.24908424908	
1732001304760.04	2.0	1.7887	559.065242913848	1084.98168498169	
1732001304767.85	2.0	1.7857	560.00448003584	1088.64468864469	
1732001304775.67	2.0	1.7887	559.065242913848	1094.50549450549	
1732001304783.48	2.0	1.7842	560.475283040018	1102.5641025641	
1732001304791.29	2.0	1.7872	559.534467323187	1110.62271062271	
1732001304799.1	2.0	1.7842	560.475283040018	1116.48351648352	
1732001304806.92	2.0	1.7857	560.00448003584	1123.07692307692	
1732001304814.73	2.0	1.7857	560.00448003584	1128.20512820513	
1732001304822.54	2.0	1.7842	560.475283040018	1131.86813186813	
1732001304830.35	2.0	1.7857	560.00448003584	1135.53113553114	
1732001304838.17	2.0	1.7827	560.946878330622	1140.65934065934	
1732001304845.98	2.0	1.7842	560.475283040018	1146.52014652015	
1732001304853.79	2.0	1.7812	561.419267909275	1153.11355311355	
1732001304861.6	2.0	1.7842	560.475283040018	1162.63736263736	
1732001304869.42	2.0	1.7797	561.892453784346	1175.82417582418	
1732001304877.23	2.0	1.7827	560.946878330622	1193.40659340659	
1732001304885.04	2.0	1.7782	562.366437970982	1227.10622710623	
1732001304892.85	2.0	1.7782	562.366437970982	1290.10989010989	
1732001304900.67	2.0	1.7707	564.748404585757	1389.74358974359	
1732001304908.48	2.0	1.7677	565.706850709962	1525.27472527473	
1732001304916.29	2.0	1.7557	569.573389531241	1687.91208791209	
1732001304924.1	2.0	1.7482	572.016931701178	1866.66666666667	
1732001304931.92	2.0	1.7362	575.970510309872	2049.81684981685	
1732001304939.73	2.0	1.7257	579.474995653938	2226.37362637363	
1732001304947.54	2.0	1.7152	583.022388059702	2386.08058608059	
1732001304955.35	2.0	1.7032	587.13010803194	2520.87912087912	
1732001304963.17	2.0	1.6972	589.205750648126	2621.97802197802	
1732001304970.98	2.0	1.6882	592.346878331951	2684.98168498168	
1732001304978.79	2.0	1.6882	592.346878331951	2710.62271062271	
1732001304986.6	2.0	1.6837	593.930035041872	2697.4358974359	
1732001304994.42	2.0	1.6897	591.821033319524	2650.54945054945	
1732001305002.23	2.0	1.6897	591.821033319524	2573.62637362637	
1732001305010.04	2.0	1.7002	588.166098106105	2472.52747252747	
1732001305017.85	2.0	1.7047	586.613480377779	2354.57875457875	
1732001305025.67	2.0	1.7167	582.51296091338	2221.97802197802	
1732001305033.48	2.0	1.7227	580.484123759215	2082.05128205128	
1732001305041.29	2.0	1.7362	575.970510309872	1938.46153846154	
1732001305049.1	2.0	1.7422	573.986913098381	1792.67399267399	
1732001305056.92	2.0	1.7527	570.548296913334	1649.08424908425	
1732001305064.73	2.0	1.7617	567.633535789294	1512.08791208791	
1732001305072.54	2.0	1.7677	565.706850709962	1383.88278388278	
1732001305080.35	2.0	1.7752	563.316809373592	1268.86446886447	
1732001305088.17	2.0	1.7812	561.419267909275	1166.30036630037	
1732001305095.98	2.0	1.7872	559.534467323187	1078.38827838828	
1732001305103.79	2.0	1.7887	559.065242913848	1008.05860805861	
1732001305111.6	2.0	1.7947	557.196188778069	953.113553113553	
1732001305119.42	2.0	1.7917	558.129151085561	912.820512820513	
1732001305127.23	2.0	1.7977	556.266340323747	884.981684981685	
1732001305135.04	2.0	1.7947	557.196188778069	869.59706959707	
1732001305142.85	2.0	1.7977	556.266340323747	867.399267399267	
1732001305150.67	2.0	1.7947	557.196188778069	878.388278388278	
1732001305158.48	2.0	1.7962	556.730876294399	900.3663003663	
1732001305166.29	2.0	1.7917	558.129151085561	934.065934065934	
1732001305174.1	2.0	1.7902	558.596804826276	976.556776556776	
1732001305181.92	2.0	1.7857	560.00448003584	1024.90842490842	
1732001305189.73	2.0	1.7827	560.946878330622	1076.92307692308	
1732001305197.54	2.0	1.7797	561.892453784346	1131.86813186813	
1732001305205.35	2.0	1.7767	562.841222491135	1183.15018315018	
1732001305213.17	2.0	1.7752	563.316809373592	1232.23443223443	
1732001305220.98	2.0	1.7707	564.748404585757	1276.19047619048	
1732001305228.79	2.0	1.7707	564.748404585757	1315.01831501832	
1732001305236.6	2.0	1.7647	566.668555561852	1345.05494505495	
1732001305244.42	2.0	1.7677	565.706850709962	1365.56776556777	
1732001305252.23	2.0	1.7632	567.150635208712	1378.75457875458	
1732001305260.04	2.0	1.7662	566.187294757106	1385.34798534799	
1732001305267.85	2.0	1.7617	567.633535789294	1383.88278388278	
1732001305275.67	2.0	1.7662	566.187294757106	1373.62637362637	
1732001305283.48	2.0	1.7647	566.668555561852	1358.24175824176	
1732001305291.29	2.0	1.7677	565.706850709962	1336.99633699634	
1732001305299.1	2.0	1.7677	565.706850709962	1312.82051282051	
1732001305306.92	2.0	1.7707	564.748404585757	1285.71428571429	
1732001305314.73	2.0	1.7707	564.748404585757	1257.14285714286	
1732001305322.54	2.0	1.7737	563.793200654	1228.57142857143	
1732001305330.35	2.0	1.7752	563.316809373592	1198.5347985348	
1732001305338.17	2.0	1.7752	563.316809373592	1169.96336996337	
1732001305345.98	2.0	1.7782	562.366437970982	1147.25274725275	
1732001305353.79	2.0	1.7767	562.841222491135	1128.20512820513	
1732001305361.6	2.0	1.7812	561.419267909275	1112.82051282051	
1732001305369.42	2.0	1.7782	562.366437970982	1101.0989010989	
1732001305377.23	2.0	1.7827	560.946878330622	1090.84249084249	
1732001305385.04	2.0	1.7797	561.892453784346	1082.78388278388	
1732001305392.85	2.0	1.7827	560.946878330622	1075.45787545788	
1732001305400.67	2.0	1.7797	561.892453784346	1071.06227106227	
1732001305408.48	2.0	1.7842	560.475283040018	1068.86446886447	
1732001305416.29	2.0	1.7797	561.892453784346	1068.13186813187	
1732001305424.1	2.0	1.7827	560.946878330622	1070.32967032967	
1732001305431.92	2.0	1.7812	561.419267909275	1073.26007326007	
1732001305439.73	2.0	1.7812	561.419267909275	1078.38827838828	
1732001305447.54	2.0	1.7812	561.419267909275	1083.51648351648	
1732001305455.35	2.0	1.7797	561.892453784346	1088.64468864469	
1732001305463.17	2.0	1.7812	561.419267909275	1093.04029304029	
1732001305470.98	2.0	1.7782	562.366437970982	1093.77289377289	
1732001305478.79	2.0	1.7812	561.419267909275	1094.50549450549	
1732001305486.6	2.0	1.7782	562.366437970982	1097.4358974359	
1732001305494.42	2.0	1.7812	561.419267909275	1101.0989010989	
1732001305502.23	2.0	1.7767	562.841222491135	1102.5641025641	
1732001305510.04	2.0	1.7797	561.892453784346	1104.0293040293	
1732001305517.85	2.0	1.7767	562.841222491135	1107.69230769231	
1732001305525.67	2.0	1.7797	561.892453784346	1117.94871794872	
1732001305533.48	2.0	1.7767	562.841222491135	1129.67032967033	
1732001305541.29	2.0	1.7782	562.366437970982	1145.05494505495	
1732001305549.1	2.0	1.7752	563.316809373592	1165.56776556777	
1732001305556.92	2.0	1.7752	563.316809373592	1196.336996337	
1732001305564.73	2.0	1.7722	564.270398374901	1248.35164835165	
1732001305572.54	2.0	1.7677	565.706850709962	1330.40293040293	
1732001305580.35	2.0	1.7632	567.150635208712	1442.49084249084	
1732001305588.17	2.0	1.7542	570.060426405199	1583.88278388278	
1732001305595.98	2.0	1.7482	572.016931701178	1745.78754578755	
1732001305603.79	2.0	1.7362	575.970510309872	1915.75091575092	
1732001305611.6	2.0	1.7287	578.469370046856	2086.44688644689	
1732001305619.42	2.0	1.7152	583.022388059702	2243.95604395604	
1732001305627.23	2.0	1.7092	585.069038146501	2378.75457875458	
1732001305635.04	2.0	1.6972	589.205750648126	2482.78388278388	
1732001305642.85	2.0	1.6957	589.726956419178	2549.45054945055	
1732001305650.67	2.0	1.6882	592.346878331951	2577.28937728938	
1732001305658.48	2.0	1.6897	591.821033319524	2567.76556776557	
1732001305666.29	2.0	1.6897	591.821033319524	2521.61172161172	
1732001305674.1	2.0	1.6972	589.205750648126	2447.61904761905	
1732001305681.92	2.0	1.7002	588.166098106105	2350.18315018315	
1732001305689.73	2.0	1.7092	585.069038146501	2237.36263736264	
1732001305697.54	2.0	1.7167	582.51296091338	2112.08791208791	
1732001305705.35	2.0	1.7257	579.474995653938	1980.95238095238	
1732001305713.17	2.0	1.7347	576.468553640399	1847.61904761905	
1732001305720.98	2.0	1.7407	574.481530418797	1714.28571428571	
1732001305728.79	2.0	1.7527	570.548296913334	1580.95238095238	
1732001305736.6	2.0	1.7557	569.573389531241	1450.54945054945	
1732001305744.42	2.0	1.7677	565.706850709962	1328.20512820513	
1732001305752.23	2.0	1.7692	565.22722134298	1214.65201465201	
1732001305760.04	2.0	1.7797	561.892453784346	1115.01831501832	
1732001305767.85	2.0	1.7812	561.419267909275	1030.76923076923	
1732001305775.67	2.0	1.7872	559.534467323187	961.172161172161	
1732001305783.48	2.0	1.7872	559.534467323187	909.89010989011	
1732001305791.29	2.0	1.7917	558.129151085561	873.992673992674	
1732001305799.1	2.0	1.7902	558.596804826276	852.747252747253	
1732001305806.92	2.0	1.7917	558.129151085561	846.886446886447	
1732001305814.73	2.0	1.7902	558.596804826276	852.014652014652	
1732001305822.54	2.0	1.7902	558.596804826276	869.59706959707	
1732001305830.35	2.0	1.7887	559.065242913848	895.238095238095	
1732001305838.17	2.0	1.7842	560.475283040018	928.205128205128	
1732001305845.98	2.0	1.7842	560.475283040018	966.300366300366	
1732001305853.79	2.0	1.7797	561.892453784346	1009.52380952381	
1732001305861.6	2.0	1.7797	561.892453784346	1054.94505494505	
1732001305869.42	2.0	1.7737	563.793200654	1102.5641025641	
1732001305877.23	2.0	1.7752	563.316809373592	1147.98534798535	
1732001305885.04	2.0	1.7692	565.22722134298	1189.74358974359	
1732001305892.85	2.0	1.7707	564.748404585757	1229.30402930403	
1732001305900.67	2.0	1.7647	566.668555561852	1264.46886446886	
1732001305908.48	2.0	1.7662	566.187294757106	1293.77289377289	
1732001305916.29	2.0	1.7617	567.633535789294	1315.01831501832	
1732001305924.1	2.0	1.7647	566.668555561852	1327.47252747253	
1732001305931.92	2.0	1.7617	567.633535789294	1334.79853479853	
1732001305939.73	2.0	1.7632	567.150635208712	1337.72893772894	
1732001305947.54	2.0	1.7632	567.150635208712	1331.13553113553	
1732001305955.35	2.0	1.7632	567.150635208712	1318.68131868132	
1732001305963.17	2.0	1.7647	566.668555561852	1301.8315018315	
1732001305970.98	2.0	1.7647	566.668555561852	1282.78388278388	
1732001305978.79	2.0	1.7677	565.706850709962	1262.27106227106	
1732001305986.6	2.0	1.7662	566.187294757106	1244.68864468864	
1732001305994.42	2.0	1.7707	564.748404585757	1227.10622710623	
1732001306002.23	2.0	1.7677	565.706850709962	1209.52380952381	
1732001306010.04	2.0	1.7722	564.270398374901	1194.87179487179	
1732001306017.85	2.0	1.7692	565.22722134298	1182.41758241758	
1732001306025.67	2.0	1.7737	563.793200654	1169.96336996337	
1732001306033.48	2.0	1.7722	564.270398374901	1158.97435897436	
1732001306041.29	2.0	1.7752	563.316809373592	1150.91575091575	
1732001306049.1	2.0	1.7722	564.270398374901	1145.78754578755	
1732001306056.92	2.0	1.7737	563.793200654	1142.85714285714	
1732001306064.73	2.0	1.7737	563.793200654	1144.32234432234	
1732001306072.54	2.0	1.7737	563.793200654	1145.05494505495	
1732001306080.35	2.0	1.7752	563.316809373592	1145.78754578755	
1732001306088.17	2.0	1.7722	564.270398374901	1147.98534798535	
1732001306095.98	2.0	1.7752	563.316809373592	1152.38095238095	
1732001306103.79	2.0	1.7722	564.270398374901	1156.04395604396	
1732001306111.6	2.0	1.7752	563.316809373592	1158.97435897436	
1732001306119.42	2.0	1.7722	564.270398374901	1162.63736263736	
1732001306127.23	2.0	1.7752	563.316809373592	1164.10256410256	
1732001306135.04	2.0	1.7707	564.748404585757	1165.56776556777	
1732001306142.85	2.0	1.7752	563.316809373592	1165.56776556777	
1732001306150.67	2.0	1.7722	564.270398374901	1164.83516483516	
1732001306158.48	2.0	1.7752	563.316809373592	1164.10256410256	
1732001306166.29	2.0	1.7722	564.270398374901	1163.36996336996	
1732001306174.1	2.0	1.7752	563.316809373592	1163.36996336996	
1732001306181.92	2.0	1.7737	563.793200654	1164.83516483516	
1732001306189.73	2.0	1.7752	563.316809373592	1168.49816849817	
1732001306197.54	2.0	1.7737	563.793200654	1175.82417582418	
1732001306205.35	2.0	1.7737	563.793200654	1183.88278388278	
1732001306213.17	2.0	1.7737	563.793200654	1196.336996337	
1732001306220.98	2.0	1.7707	564.748404585757	1216.11721611722	
1732001306228.79	2.0	1.7722	564.270398374901	1250.54945054945	
1732001306236.6	2.0	1.7662	566.187294757106	1309.15750915751	
1732001306244.42	2.0	1.7662	566.187294757106	1400.7326007326	
1732001306252.23	2.0	1.7557	569.573389531241	1524.54212454212	
1732001306260.04	2.0	1.7527	570.548296913334	1675.45787545788	
1732001306267.85	2.0	1.7392	574.977000919963	1843.95604395604	
1732001306275.67	2.0	1.7332	576.96745903531	2016.11721611722	
1732001306283.48	2.0	1.7197	581.496772692911	2181.68498168498	
1732001306291.29	2.0	1.7137	583.532707008228	2330.40293040293	
1732001306299.1	2.0	1.7017	587.647646471176	2452.74725274725	
1732001306306.92	2.0	1.6957	589.726956419178	2537.72893772894	
1732001306314.73	2.0	1.6912	591.296121097446	2582.41758241758	
1732001306322.54	2.0	1.6897	591.821033319524	2586.81318681319	
1732001306330.35	2.0	1.6897	591.821033319524	2556.04395604396	
1732001306338.17	2.0	1.6927	590.772139185916	2497.4358974359	
1732001306345.98	2.0	1.7002	588.166098106105	2413.18681318681	
1732001306353.79	2.0	1.7032	587.13010803194	2306.22710622711	
1732001306361.6	2.0	1.7152	583.022388059702	2186.08058608059	
1732001306369.42	2.0	1.7197	581.496772692911	2055.67765567766	
1732001306377.23	2.0	1.7332	576.96745903531	1920.14652014652	
1732001306385.04	2.0	1.7377	575.473326811302	1782.41758241758	
1732001306392.85	2.0	1.7497	571.526547408127	1645.42124542125	
1732001306400.67	2.0	1.7542	570.060426405199	1512.08791208791	
1732001306408.48	2.0	1.7647	566.668555561852	1384.61538461538	
1732001306416.29	2.0	1.7692	565.22722134298	1265.20146520147	
1732001306424.1	2.0	1.7782	562.366437970982	1155.31135531136	
1732001306431.92	2.0	1.7812	561.419267909275	1057.87545787546	
1732001306439.73	2.0	1.7872	559.534467323187	975.091575091575	
1732001306447.54	2.0	1.7902	558.596804826276	911.355311355311	
1732001306455.35	2.0	1.7932	557.6622797234	864.468864468864	
1732001306463.17	2.0	1.7962	556.730876294399	832.234432234432	
1732001306470.98	2.0	1.7947	557.196188778069	817.582417582418	
1732001306478.79	2.0	1.7962	556.730876294399	818.315018315018	
1732001306486.6	2.0	1.7917	558.129151085561	832.234432234432	
1732001306494.42	2.0	1.7947	557.196188778069	858.608058608059	
1732001306502.23	2.0	1.7887	559.065242913848	893.040293040293	
1732001306510.04	2.0	1.7902	558.596804826276	931.868131868132	
1732001306517.85	2.0	1.7827	560.946878330622	975.091575091575	
1732001306525.67	2.0	1.7842	560.475283040018	1020.51282051282	
1732001306533.48	2.0	1.7782	562.366437970982	1066.66666666667	
1732001306541.29	2.0	1.7797	561.892453784346	1110.62271062271	
1732001306549.1	2.0	1.7752	563.316809373592	1152.38095238095	
1732001306556.92	2.0	1.7752	563.316809373592	1193.40659340659	
1732001306564.73	2.0	1.7707	564.748404585757	1232.23443223443	
1732001306572.54	2.0	1.7692	565.22722134298	1266.66666666667	
1732001306580.35	2.0	1.7677	565.706850709962	1295.2380952381	
1732001306588.17	2.0	1.7662	566.187294757106	1314.28571428571	
1732001306595.98	2.0	1.7677	565.706850709962	1323.80952380952	
1732001306603.79	2.0	1.7647	566.668555561852	1326.00732600733	
1732001306611.6	2.0	1.7677	565.706850709962	1323.80952380952	
1732001306619.42	2.0	1.7647	566.668555561852	1317.21611721612	
1732001306627.23	2.0	1.7692	565.22722134298	1305.49450549451	
1732001306635.04	2.0	1.7662	566.187294757106	1291.57509157509	
1732001306642.85	2.0	1.7707	564.748404585757	1278.38827838828	
1732001306650.67	2.0	1.7677	565.706850709962	1265.93406593407	
1732001306658.48	2.0	1.7722	564.270398374901	1253.47985347985	
1732001306666.29	2.0	1.7707	564.748404585757	1242.49084249084	
1732001306674.1	2.0	1.7737	563.793200654	1234.43223443223	
1732001306681.92	2.0	1.7722	564.270398374901	1226.37362637363	
1732001306689.73	2.0	1.7737	563.793200654	1219.04761904762	
1732001306697.54	2.0	1.7737	563.793200654	1212.45421245421	
1732001306705.35	2.0	1.7737	563.793200654	1207.32600732601	
1732001306713.17	2.0	1.7752	563.316809373592	1202.1978021978	
1732001306720.98	2.0	1.7737	563.793200654	1198.5347985348	
1732001306728.79	2.0	1.7752	563.316809373592	1193.40659340659	
1732001306736.6	2.0	1.7722	564.270398374901	1186.08058608059	
1732001306744.42	2.0	1.7767	562.841222491135	1178.02197802198	
1732001306752.23	2.0	1.7722	564.270398374901	1172.16117216117	
1732001306760.04	2.0	1.7767	562.841222491135	1167.76556776557	
1732001306767.85	2.0	1.7737	563.793200654	1164.10256410256	
1732001306775.67	2.0	1.7782	562.366437970982	1158.97435897436	
1732001306783.48	2.0	1.7737	563.793200654	1156.77655677656	
1732001306791.29	2.0	1.7782	562.366437970982	1158.24175824176	
1732001306799.1	2.0	1.7752	563.316809373592	1161.90476190476	
1732001306806.92	2.0	1.7767	562.841222491135	1165.56776556777	
1732001306814.73	2.0	1.7752	563.316809373592	1167.76556776557	
1732001306822.54	2.0	1.7752	563.316809373592	1170.69597069597	
1732001306830.35	2.0	1.7752	563.316809373592	1172.16117216117	
1732001306838.17	2.0	1.7737	563.793200654	1173.62637362637	
1732001306845.98	2.0	1.7767	562.841222491135	1178.02197802198	
1732001306853.79	2.0	1.7737	563.793200654	1183.15018315018	
1732001306861.6	2.0	1.7752	563.316809373592	1187.54578754579	
1732001306869.42	2.0	1.7722	564.270398374901	1192.67399267399	
1732001306877.23	2.0	1.7767	562.841222491135	1197.8021978022	
1732001306885.04	2.0	1.7707	564.748404585757	1206.59340659341	
1732001306892.85	2.0	1.7737	563.793200654	1219.78021978022	
1732001306900.67	2.0	1.7692	565.22722134298	1244.68864468864	
1732001306908.48	2.0	1.7722	564.270398374901	1297.4358974359	
1732001306916.29	2.0	1.7647	566.668555561852	1387.54578754579	
1732001306924.1	2.0	1.7617	567.633535789294	1517.94871794872	
1732001306931.92	2.0	1.7497	571.526547408127	1680.58608058608	
1732001306939.73	2.0	1.7422	573.986913098381	1863.73626373626	
1732001306947.54	2.0	1.7302	577.967864986707	2052.74725274725	
1732001306955.35	2.0	1.7197	581.496772692911	2238.82783882784	
1732001306963.17	2.0	1.7077	585.582947824559	2410.25641025641	
1732001306970.98	2.0	1.6972	589.205750648126	2555.31135531135	
1732001306978.79	2.0	1.6882	592.346878331951	2663.73626373626	
1732001306986.6	2.0	1.6792	595.521676989042	2736.26373626374	
1732001306994.42	2.0	1.6792	595.521676989042	2768.49816849817	
1732001307002.23	2.0	1.6732	597.65718383935	2761.17216117216	
1732001307010.04	2.0	1.6792	595.521676989042	2720.14652014652	
1732001307017.85	2.0	1.6792	595.521676989042	2648.35164835165	
1732001307025.67	2.0	1.6897	591.821033319524	2553.11355311355	
1732001307033.48	2.0	1.6927	590.772139185916	2438.82783882784	
1732001307041.29	2.0	1.7047	586.613480377779	2308.42490842491	
1732001307049.1	2.0	1.7122	584.043920102792	2169.96336996337	
1732001307056.92	2.0	1.7242	579.979120751653	2028.57142857143	
1732001307064.73	2.0	1.7317	577.467228734769	1890.10989010989	
1732001307072.54	2.0	1.7422	573.986913098381	1754.57875457875	
1732001307080.35	2.0	1.7497	571.526547408127	1624.17582417582	
1732001307088.17	2.0	1.7557	569.573389531241	1498.1684981685	
1732001307095.98	2.0	1.7647	566.668555561852	1378.75457875458	
1732001307103.79	2.0	1.7692	565.22722134298	1267.39926739927	
1732001307111.6	2.0	1.7767	562.841222491135	1168.49816849817	
1732001307119.42	2.0	1.7782	562.366437970982	1084.24908424908	
1732001307127.23	2.0	1.7857	560.00448003584	1013.91941391941	
1732001307135.04	2.0	1.7842	560.475283040018	958.974358974359	
1732001307142.85	2.0	1.7902	558.596804826276	920.879120879121	
1732001307150.67	2.0	1.7872	559.534467323187	898.168498168498	
1732001307158.48	2.0	1.7917	558.129151085561	886.446886446887	
1732001307166.29	2.0	1.7887	559.065242913848	887.179487179487	
1732001307174.1	2.0	1.7902	558.596804826276	900.3663003663	
1732001307181.92	2.0	1.7872	559.534467323187	923.076923076923	
1732001307189.73	2.0	1.7872	559.534467323187	954.578754578755	
1732001307197.54	2.0	1.7827	560.946878330622	991.941391941392	
1732001307205.35	2.0	1.7812	561.419267909275	1035.16483516484	
1732001307213.17	2.0	1.7797	561.892453784346	1081.31868131868	
1732001307220.98	2.0	1.7752	563.316809373592	1129.67032967033	
1732001307228.79	2.0	1.7737	563.793200654	1178.75457875458	
1732001307236.6	2.0	1.7692	565.22722134298	1224.90842490842	
1732001307244.42	2.0	1.7692	565.22722134298	1264.46886446886	
1732001307252.23	2.0	1.7647	566.668555561852	1297.4358974359	
1732001307260.04	2.0	1.7662	566.187294757106	1322.34432234432	
1732001307267.85	2.0	1.7617	567.633535789294	1341.39194139194	
1732001307275.67	2.0	1.7647	566.668555561852	1352.38095238095	
1732001307283.48	2.0	1.7617	567.633535789294	1355.31135531136	
1732001307291.29	2.0	1.7647	566.668555561852	1353.84615384615	
1732001307299.1	2.0	1.7617	567.633535789294	1347.98534798535	
1732001307306.92	2.0	1.7662	566.187294757106	1337.72893772894	
1732001307314.73	2.0	1.7647	566.668555561852	1322.34432234432	
1732001307322.54	2.0	1.7677	565.706850709962	1303.2967032967	
1732001307330.35	2.0	1.7677	565.706850709962	1282.78388278388	
1732001307338.17	2.0	1.7677	565.706850709962	1261.53846153846	
1732001307345.98	2.0	1.7707	564.748404585757	1238.82783882784	
1732001307353.79	2.0	1.7707	564.748404585757	1218.31501831502	
1732001307361.6	2.0	1.7737	563.793200654	1200.7326007326	
1732001307369.42	2.0	1.7722	564.270398374901	1187.54578754579	
1732001307377.23	2.0	1.7767	562.841222491135	1175.82417582418	
1732001307385.04	2.0	1.7737	563.793200654	1165.56776556777	
1732001307392.85	2.0	1.7782	562.366437970982	1158.97435897436	
1732001307400.67	2.0	1.7737	563.793200654	1153.11355311355	
1732001307408.48	2.0	1.7782	562.366437970982	1150.18315018315	
1732001307416.29	2.0	1.7752	563.316809373592	1150.18315018315	
1732001307424.1	2.0	1.7782	562.366437970982	1152.38095238095	
1732001307431.92	2.0	1.7752	563.316809373592	1156.04395604396	
1732001307439.73	2.0	1.7767	562.841222491135	1158.24175824176	
1732001307447.54	2.0	1.7767	562.841222491135	1158.97435897436	
1732001307455.35	2.0	1.7767	562.841222491135	1158.24175824176	
1732001307463.17	2.0	1.7767	562.841222491135	1160.43956043956	
1732001307470.98	2.0	1.7752	563.316809373592	1162.63736263736	
1732001307478.79	2.0	1.7767	562.841222491135	1166.30036630037	
1732001307486.6	2.0	1.7737	563.793200654	1169.23076923077	
1732001307494.42	2.0	1.7767	562.841222491135	1170.69597069597	
1732001307502.23	2.0	1.7737	563.793200654	1173.62637362637	
1732001307510.04	2.0	1.7782	562.366437970982	1179.48717948718	
1732001307517.85	2.0	1.7737	563.793200654	1186.08058608059	
1732001307525.67	2.0	1.7767	562.841222491135	1190.47619047619	
1732001307533.48	2.0	1.7737	563.793200654	1191.20879120879	
1732001307541.29	2.0	1.7767	562.841222491135	1192.67399267399	
1732001307549.1	2.0	1.7737	563.793200654	1195.6043956044	
1732001307556.92	2.0	1.7752	563.316809373592	1203.663003663	
1732001307564.73	2.0	1.7737	563.793200654	1217.58241758242	
1732001307572.54	2.0	1.7737	563.793200654	1241.02564102564	
1732001307580.35	2.0	1.7722	564.270398374901	1284.98168498168	
1732001307588.17	2.0	1.7677	565.706850709962	1359.70695970696	
1732001307595.98	2.0	1.7647	566.668555561852	1471.06227106227	
1732001307603.79	2.0	1.7557	569.573389531241	1617.58241758242	
1732001307611.6	2.0	1.7482	572.016931701178	1791.94139194139	
1732001307619.42	2.0	1.7347	576.468553640399	1981.68498168498	
1732001307627.23	2.0	1.7272	578.971746178786	2171.42857142857	
1732001307635.04	2.0	1.7122	584.043920102792	2350.91575091575	
1732001307642.85	2.0	1.7062	586.097761106553	2507.69230769231	
1732001307650.67	2.0	1.6912	591.296121097446	2631.50183150183	
1732001307658.48	2.0	1.6882	592.346878331951	2718.68131868132	
1732001307666.29	2.0	1.6807	594.990182661986	2767.76556776557	
1732001307674.1	2.0	1.6807	594.990182661986	2779.48717948718	
1732001307681.92	2.0	1.6777	596.054121714252	2755.31135531136	
1732001307689.73	2.0	1.6822	594.459636190703	2697.4358974359	
1732001307697.54	2.0	1.6867	592.873658623347	2613.91941391941	
1732001307705.35	2.0	1.6942	590.249085113918	2506.22710622711	
1732001307713.17	2.0	1.7017	587.647646471176	2383.88278388278	
1732001307720.98	2.0	1.7107	584.556029695446	2247.61904761905	
1732001307728.79	2.0	1.7212	580.99000697188	2104.0293040293	
1732001307736.6	2.0	1.7287	578.469370046856	1961.17216117216	
1732001307744.42	2.0	1.7422	573.986913098381	1819.78021978022	
1732001307752.23	2.0	1.7467	572.508158241255	1682.05128205128	
1732001307760.04	2.0	1.7602	568.117259402341	1553.11355311355	
1732001307767.85	2.0	1.7632	567.150635208712	1429.30402930403	
1732001307775.67	2.0	1.7737	563.793200654	1316.48351648352	
1732001307783.48	2.0	1.7767	562.841222491135	1215.38461538462	
1732001307791.29	2.0	1.7842	560.475283040018	1126.00732600733	
1732001307799.1	2.0	1.7857	560.00448003584	1046.88644688645	
1732001307806.92	2.0	1.7917	558.129151085561	981.684981684982	
1732001307814.73	2.0	1.7932	557.6622797234	929.67032967033	
1732001307822.54	2.0	1.7962	556.730876294399	889.377289377289	
1732001307830.35	2.0	1.7977	556.266340323747	863.003663003663	
1732001307838.17	2.0	1.7977	556.266340323747	852.747252747253	
1732001307845.98	2.0	1.7992	555.802578923966	854.945054945055	
1732001307853.79	2.0	1.7962	556.730876294399	871.062271062271	
1732001307861.6	2.0	1.7962	556.730876294399	897.435897435897	
1732001307869.42	2.0	1.7917	558.129151085561	933.333333333333	
1732001307877.23	2.0	1.7932	557.6622797234	978.021978021978	
1732001307885.04	2.0	1.7857	560.00448003584	1027.10622710623	
1732001307892.85	2.0	1.7887	559.065242913848	1079.12087912088	
1732001307900.67	2.0	1.7812	561.419267909275	1131.13553113553	
1732001307908.48	2.0	1.7827	560.946878330622	1181.68498168498	
1732001307916.29	2.0	1.7767	562.841222491135	1227.83882783883	
1732001307924.1	2.0	1.7782	562.366437970982	1267.39926739927	
1732001307931.92	2.0	1.7737	563.793200654	1300.3663003663	
1732001307939.73	2.0	1.7752	563.316809373592	1328.93772893773	
1732001307947.54	2.0	1.7737	563.793200654	1352.38095238095	
1732001307955.35	2.0	1.7737	563.793200654	1367.03296703297	
1732001307963.17	2.0	1.7737	563.793200654	1372.16117216117	
1732001307970.98	2.0	1.7722	564.270398374901	1367.76556776557	
1732001307978.79	2.0	1.7752	563.316809373592	1355.31135531136	
1732001307986.6	2.0	1.7752	563.316809373592	1338.46153846154	
1732001307994.42	2.0	1.7797	561.892453784346	1315.75091575092	
1732001308002.23	2.0	1.7782	562.366437970982	1292.30769230769	
1732001308010.04	2.0	1.7842	560.475283040018	1267.39926739927	
1732001308017.85	2.0	1.7812	561.419267909275	1243.22344322344	
1732001308025.67	2.0	1.7872	559.534467323187	1218.31501831502	
1732001308033.48	2.0	1.7857	560.00448003584	1197.0695970696	
1732001308041.29	2.0	1.7902	558.596804826276	1178.02197802198	
1732001308049.1	2.0	1.7887	559.065242913848	1161.90476190476	
1732001308056.92	2.0	1.7932	557.6622797234	1147.98534798535	
1732001308064.73	2.0	1.7917	558.129151085561	1134.06593406593	
1732001308072.54	2.0	1.7947	557.196188778069	1122.34432234432	
1732001308080.35	2.0	1.7947	557.196188778069	1114.28571428571	
1732001308088.17	2.0	1.7947	557.196188778069	1108.42490842491	
1732001308095.98	2.0	1.7962	556.730876294399	1104.7619047619	
1732001308103.79	2.0	1.7962	556.730876294399	1104.0293040293	
1732001308111.6	2.0	1.7977	556.266340323747	1106.22710622711	
1732001308119.42	2.0	1.7947	557.196188778069	1109.15750915751	
1732001308127.23	2.0	1.7977	556.266340323747	1112.08791208791	
1732001308135.04	2.0	1.7947	557.196188778069	1115.01831501832	
1732001308142.85	2.0	1.7992	555.802578923966	1117.21611721612	
1732001308150.67	2.0	1.7962	556.730876294399	1121.61172161172	
1732001308158.48	2.0	1.8007	555.339590159382	1126.00732600733	
1732001308166.29	2.0	1.7977	556.266340323747	1128.20512820513	
1732001308174.1	2.0	1.8007	555.339590159382	1130.40293040293	
1732001308181.92	2.0	1.7992	555.802578923966	1133.33333333333	
1732001308189.73	2.0	1.8022	554.877372100766	1138.46153846154	
1732001308197.54	2.0	1.8007	555.339590159382	1143.58974358974	
1732001308205.35	2.0	1.8022	554.877372100766	1149.45054945055	
1732001308213.17	2.0	1.8022	554.877372100766	1152.38095238095	
1732001308220.98	2.0	1.8022	554.877372100766	1153.11355311355	
1732001308228.79	2.0	1.8052	553.955240416574	1153.84615384615	
1732001308236.6	2.0	1.8022	554.877372100766	1156.77655677656	
1732001308244.42	2.0	1.8067	553.495322964521	1165.56776556777	
1732001308252.23	2.0	1.8022	554.877372100766	1179.48717948718	
1732001308260.04	2.0	1.8052	553.955240416574	1202.1978021978	
1732001308267.85	2.0	1.8007	555.339590159382	1241.75824175824	
1732001308275.67	2.0	1.8022	554.877372100766	1307.69230769231	
1732001308283.48	2.0	1.7947	557.196188778069	1410.25641025641	
1732001308291.29	2.0	1.7917	558.129151085561	1547.98534798535	
1732001308299.1	2.0	1.7797	561.892453784346	1712.08791208791	
1732001308306.92	2.0	1.7737	563.793200654	1893.04029304029	
1732001308314.73	2.0	1.7617	567.633535789294	2076.92307692308	
1732001308322.54	2.0	1.7527	570.548296913334	2249.08424908425	
1732001308330.35	2.0	1.7422	573.986913098381	2400.7326007326	
1732001308338.17	2.0	1.7332	576.96745903531	2523.80952380952	
1732001308345.98	2.0	1.7272	578.971746178786	2611.72161172161	
1732001308353.79	2.0	1.7212	580.99000697188	2659.34065934066	
1732001308361.6	2.0	1.7227	580.484123759215	2666.66666666667	
1732001308369.42	2.0	1.7197	581.496772692911	2635.89743589744	
1732001308377.23	2.0	1.7272	578.971746178786	2572.16117216117	
1732001308385.04	2.0	1.7287	578.469370046856	2479.85347985348	
1732001308392.85	2.0	1.7407	574.481530418797	2366.30036630037	
1732001308400.67	2.0	1.7467	572.508158241255	2236.63003663004	
1732001308408.48	2.0	1.7587	568.60180815375	2097.4358974359	
1732001308416.29	2.0	1.7662	566.187294757106	1950.91575091575	
1732001308424.1	2.0	1.7782	562.366437970982	1802.1978021978	
1732001308431.92	2.0	1.7857	560.00448003584	1656.41025641026	
1732001308439.73	2.0	1.7962	556.730876294399	1515.01831501832	
1732001308447.54	2.0	1.8037	554.415922825304	1381.68498168498	
1732001308455.35	2.0	1.8112	552.120141342756	1254.21245421245	
1732001308463.17	2.0	1.8187	549.843294661022	1136.99633699634	
1732001308470.98	2.0	1.8232	548.486178148311	1038.09523809524	
1732001308478.79	2.0	1.8292	546.687076317516	956.776556776557	
1732001308486.6	2.0	1.8307	546.239143497023	890.842490842491	
1732001308494.42	2.0	1.8367	544.454728589318	841.025641025641	
1732001308502.23	2.0	1.8352	544.899738448126	808.791208791209	
1732001308510.04	2.0	1.8397	543.566885905311	793.406593406593	
1732001308517.85	2.0	1.8367	544.454728589318	790.47619047619	
1732001308525.67	2.0	1.8397	543.566885905311	799.267399267399	
1732001308533.48	2.0	1.8352	544.899738448126	819.78021978022	
1732001308541.29	2.0	1.8367	544.454728589318	849.084249084249	
1732001308549.1	2.0	1.8322	545.791944110905	887.179487179487	
1732001308556.92	2.0	1.8322	545.791944110905	930.40293040293	
1732001308564.73	2.0	1.8277	547.13574437818	978.754578754579	
1732001308572.54	2.0	1.8262	547.585149490746	1030.03663003663	
1732001308580.35	2.0	1.8232	548.486178148311	1080.58608058608	
1732001308588.17	2.0	1.8217	548.937805346654	1127.47252747253	
1732001308595.98	2.0	1.8187	549.843294661022	1174.35897435897	
1732001308603.79	2.0	1.8157	550.751776174478	1216.11721611722	
1732001308611.6	2.0	1.8157	550.751776174478	1253.47985347985	
1732001308619.42	2.0	1.8112	552.120141342756	1286.44688644689	
1732001308627.23	2.0	1.8142	551.207143644582	1309.89010989011	
1732001308635.04	2.0	1.8097	552.577775321877	1323.80952380952	
1732001308642.85	2.0	1.8127	551.663264743201	1331.86813186813	
1732001308650.67	2.0	1.8097	552.577775321877	1334.79853479853	
1732001308658.48	2.0	1.8142	551.207143644582	1331.13553113553	
1732001308666.29	2.0	1.8112	552.120141342756	1322.34432234432	
1732001308674.1	2.0	1.8157	550.751776174478	1310.62271062271	
1732001308681.92	2.0	1.8142	551.207143644582	1295.2380952381	
1732001308689.73	2.0	1.8172	550.297160466652	1276.19047619048	
1732001308697.54	2.0	1.8172	550.297160466652	1256.41025641026	
1732001308705.35	2.0	1.8202	549.390176903637	1238.09523809524	
1732001308713.17	2.0	1.8217	548.937805346654	1221.24542124542	
1732001308720.98	2.0	1.8217	548.937805346654	1203.663003663	
1732001308728.79	2.0	1.8247	548.0352934729	1189.01098901099	
1732001308736.6	2.0	1.8232	548.486178148311	1176.55677655678	
1732001308744.42	2.0	1.8262	547.585149490746	1167.03296703297	
1732001308752.23	2.0	1.8232	548.486178148311	1158.97435897436	
1732001308760.04	2.0	1.8277	547.13574437818	1153.84615384615	
1732001308767.85	2.0	1.8247	548.0352934729	1150.18315018315	
1732001308775.67	2.0	1.8277	547.13574437818	1145.78754578755	
1732001308783.48	2.0	1.8247	548.0352934729	1140.65934065934	
1732001308791.29	2.0	1.8307	546.239143497023	1138.46153846154	
1732001308799.1	2.0	1.8277	547.13574437818	1139.19413919414	
1732001308806.92	2.0	1.8307	546.239143497023	1141.39194139194	
1732001308814.73	2.0	1.8277	547.13574437818	1142.85714285714	
1732001308822.54	2.0	1.8292	546.687076317516	1142.85714285714	
1732001308830.35	2.0	1.8292	546.687076317516	1142.85714285714	
1732001308838.17	2.0	1.8292	546.687076317516	1142.85714285714	
1732001308845.98	2.0	1.8307	546.239143497023	1141.39194139194	
1732001308853.79	2.0	1.8292	546.687076317516	1142.85714285714	
1732001308861.6	2.0	1.8307	546.239143497023	1143.58974358974	
1732001308869.42	2.0	1.8277	547.13574437818	1144.32234432234	
1732001308877.23	2.0	1.8322	545.791944110905	1142.85714285714	
1732001308885.04	2.0	1.8277	547.13574437818	1142.85714285714	
1732001308892.85	2.0	1.8322	545.791944110905	1143.58974358974	
1732001308900.67	2.0	1.8277	547.13574437818	1146.52014652015	
1732001308908.48	2.0	1.8322	545.791944110905	1150.18315018315	
1732001308916.29	2.0	1.8292	546.687076317516	1156.77655677656	
1732001308924.1	2.0	1.8307	546.239143497023	1162.63736263736	
1732001308931.92	2.0	1.8277	547.13574437818	1172.16117216117	
1732001308939.73	2.0	1.8292	546.687076317516	1188.27838827839	
1732001308947.54	2.0	1.8262	547.585149490746	1213.91941391941	
1732001308955.35	2.0	1.8262	547.585149490746	1250.54945054945	
1732001308963.17	2.0	1.8232	548.486178148311	1304.0293040293	
1732001308970.98	2.0	1.8187	549.843294661022	1382.41758241758	
1732001308978.79	2.0	1.8157	550.751776174478	1487.91208791209	
1732001308986.6	2.0	1.8052	553.955240416574	1616.84981684982	
1732001308994.42	2.0	1.8022	554.877372100766	1761.17216117216	
1732001309002.23	2.0	1.7902	558.596804826276	1911.35531135531	
1732001309010.04	2.0	1.7842	560.475283040018	2056.41025641026	
1732001309017.85	2.0	1.7722	564.270398374901	2186.08058608059	
1732001309025.67	2.0	1.7692	565.22722134298	2291.57509157509	
1732001309033.48	2.0	1.7587	568.60180815375	2366.30036630037	
1732001309041.29	2.0	1.7587	568.60180815375	2406.59340659341	
1732001309049.1	2.0	1.7542	570.060426405199	2413.91941391941	
1732001309056.92	2.0	1.7572	569.087184156613	2389.74358974359	
1732001309064.73	2.0	1.7587	568.60180815375	2334.79853479853	
1732001309072.54	2.0	1.7647	566.668555561852	2254.21245421245	
1732001309080.35	2.0	1.7692	565.22722134298	2153.11355311355	
1732001309088.17	2.0	1.7767	562.841222491135	2035.89743589744	
1732001309095.98	2.0	1.7857	560.00448003584	1909.15750915751	
1732001309103.79	2.0	1.7917	558.129151085561	1776.55677655678	
1732001309111.6	2.0	1.8007	555.339590159382	1643.95604395604	
1732001309119.42	2.0	1.8052	553.955240416574	1512.08791208791	
1732001309127.23	2.0	1.8172	550.297160466652	1383.15018315018	
