"sep=	"
id95AE_Timestamp_Unix_CAL	id95AE_GSR_Range_CAL	id95AE_GSR_Skin_Conductance_CAL	id95AE_GSR_Skin_Resistance_CAL	id95AE_PPG_A13_CAL	
ms	no_units	uS	kOhms	mV	
1736497141663.57	0.0	2.5359	394.337316140226	0.0	
1736497141671.39	0.0	2.5359	394.337316140226	0.0	
1736497141679.2	0.0	2.5359	394.337316140226	0.0	
1736497141687.01	0.0	2.5359	394.337316140226	0.0	
1736497141694.82	0.0	2.5359	394.337316140226	0.0	
1736497141702.64	0.0	2.5359	394.337316140226	0.0	
1736497141710.45	0.0	2.5359	394.337316140226	0.0	
1736497141718.26	0.0	2.5359	394.337316140226	0.0	
1736497141726.07	1.0	1.4162	706.114955514758	0.0	
1736497141733.89	1.0	1.4162	706.114955514758	0.0	
1736497141741.7	1.0	1.4162	706.114955514758	0.0	
1736497141749.51	1.0	1.4162	706.114955514758	0.0	
1736497141757.32	1.0	1.4162	706.114955514758	0.0	
1736497141765.14	1.0	1.4162	706.114955514758	0.0	
1736497141772.95	1.0	1.4162	706.114955514758	0.0	
1736497141780.76	1.0	1.4162	706.114955514758	0.0	
1736497141788.57	1.0	1.4162	706.114955514758	0.0	
1736497141796.39	1.0	1.4162	706.114955514758	0.0	
1736497141804.2	1.0	1.4162	706.114955514758	0.0	
1736497141812.01	2.0	1.2262	815.527646387212	0.0	
1736497141819.82	2.0	1.2262	815.527646387212	0.0	
1736497141827.64	2.0	1.2262	815.527646387212	0.0	
1736497141835.45	2.0	1.2262	815.527646387212	0.0	
1736497141843.26	2.0	1.2262	815.527646387212	0.0	
1736497141851.07	2.0	1.2262	815.527646387212	0.0	
1736497141858.89	2.0	1.2262	815.527646387212	0.0	
1736497141866.7	2.0	1.2262	815.527646387212	0.0	
1736497141874.51	2.0	1.2262	815.527646387212	0.0	
1736497141882.32	2.0	1.2262	815.527646387212	0.0	
1736497141890.14	2.0	1.2262	815.527646387212	0.0	
1736497141897.95	3.0	1.2405714	806.080165962233	0.0	
1736497141905.76	3.0	1.2382924	807.563706278097	0.0	
1736497141913.57	3.0	1.2419388	805.192655225845	0.0	
1736497141921.39	3.0	1.2373808	808.15865253445	0.0	
1736497141929.2	3.0	1.2423946	804.897252451033	0.0	
1736497141937.01	3.0	1.236925	808.456454514219	0.0	
1736497141944.82	3.0	1.2428504	804.602066346843	0.0	
1736497141952.64	3.0	1.236925	808.456454514219	0.0	
1736497141960.45	3.0	1.2433062	804.307096674978	0.0	
1736497141968.26	3.0	1.2378366	807.861069869804	0.0	
1736497141976.07	3.0	1.2433062	804.307096674978	0.0	
1736497141983.89	3.0	1.2387482	807.266561517506	0.0	
1736497141991.7	3.0	1.2428504	804.602066346843	0.0	
1736497141999.51	3.0	1.2405714	806.080165962233	0.0	
1736497142007.32	3.0	1.2419388	805.192655225845	0.0	
1736497142015.14	3.0	1.2419388	805.192655225845	0.0	
1736497142022.95	3.0	1.2410272	805.784111742273	0.0	
1736497142030.76	3.0	1.2428504	804.602066346843	0.0	
1736497142038.57	3.0	1.239204	806.969635346561	0.0	
1736497142046.39	3.0	1.243762	804.012343197493	0.0	
1736497142054.2	3.0	1.2382924	807.563706278097	0.0	
1736497142062.01	3.0	1.243762	804.012343197493	0.0	
1736497142069.82	3.0	1.2373808	808.15865253445	0.0	
1736497142077.64	3.0	1.2442178	803.717805676788	0.0	
1736497142085.45	3.0	1.2378366	807.861069869804	0.0	
1736497142093.26	3.0	1.2442178	803.717805676788	0.0	
1736497142101.07	3.0	1.2387482	807.266561517506	0.0	
1736497142108.89	3.0	1.2433062	804.307096674978	0.0	
1736497142116.7	3.0	1.2401156	806.376437809507	0.0	
1736497142124.51	3.0	1.2428504	804.602066346843	0.0	
1736497142132.32	3.0	1.241483	805.488274909926	0.0	
1736497142140.14	3.0	1.2419388	805.192655225845	0.0	
1736497142147.95	3.0	1.2428504	804.602066346843	0.0	
1736497142155.76	3.0	1.2405714	806.080165962233	0.0	
1736497142163.57	3.0	1.243762	804.012343197493	0.0	
1736497142171.39	3.0	1.239204	806.969635346561	0.0	
1736497142179.2	3.0	1.2442178	803.717805676788	0.0	
1736497142187.01	3.0	1.2382924	807.563706278097	0.0	
1736497142194.82	3.0	1.2442178	803.717805676788	0.0	
1736497142202.64	3.0	1.2378366	807.861069869804	0.0	
1736497142210.45	3.0	1.2446736	803.423483875612	0.0	
1736497142218.26	3.0	1.2382924	807.563706278097	0.0	
1736497142226.07	3.0	1.2442178	803.717805676788	0.0	
1736497142233.89	3.0	1.2396598	806.672927524148	0.0	
1736497142241.7	3.0	1.2433062	804.307096674978	0.0	
1736497142249.51	3.0	1.2410272	805.784111742273	0.0	
1736497142257.32	3.0	1.2428504	804.602066346843	0.0	
1736497142265.14	3.0	1.2428504	804.602066346843	0.0	
1736497142272.95	3.0	1.2419388	805.192655225845	0.0	
1736497142280.76	3.0	1.2433062	804.307096674978	0.0	
1736497142288.57	3.0	1.2401156	806.376437809507	0.0	
1736497142296.39	3.0	1.2442178	803.717805676788	0.0	
1736497142304.2	3.0	1.2387482	807.266561517506	0.0	
1736497142312.01	3.0	1.2446736	803.423483875612	0.0	
1736497142319.82	3.0	1.2382924	807.563706278097	0.0	
1736497142327.64	3.0	1.2446736	803.423483875612	0.0	
1736497142335.45	3.0	1.2382924	807.563706278097	0.0	
1736497142343.26	3.0	1.2446736	803.423483875612	0.0	
1736497142351.07	3.0	1.239204	806.969635346561	0.0	
1736497142358.89	3.0	1.2442178	803.717805676788	0.0	
1736497142366.7	3.0	1.2410272	805.784111742273	0.0	
1736497142374.51	3.0	1.2433062	804.307096674978	0.0	
1736497142382.32	3.0	1.2423946	804.897252451033	0.0	
1736497142390.14	3.0	1.2423946	804.897252451033	0.0	
1736497142397.95	3.0	1.243762	804.012343197493	0.0	
1736497142405.76	3.0	1.2410272	805.784111742273	0.0	
1736497142413.57	3.0	1.2442178	803.717805676788	0.0	
1736497142421.39	3.0	1.2396598	806.672927524148	0.0	
1736497142429.2	3.0	1.2442178	803.717805676788	0.0	
1736497142437.01	3.0	1.2387482	807.266561517506	0.0	
1736497142444.82	3.0	1.2446736	803.423483875612	0.0	
1736497142452.64	3.0	1.2387482	807.266561517506	0.0	
1736497142460.45	3.0	1.2451294	803.129377557064	0.0	
1736497142468.26	3.0	1.2396598	806.672927524148	0.0	
1736497142476.07	3.0	1.2451294	803.129377557064	0.0	
1736497142483.89	3.0	1.2405714	806.080165962233	0.0	
1736497142491.7	3.0	1.2446736	803.423483875612	0.0	
1736497142499.51	3.0	1.2423946	804.897252451033	0.0	
1736497142507.32	3.0	1.2442178	803.717805676788	0.0	
1736497142515.14	3.0	1.243762	804.012343197493	0.0	
1736497142522.95	3.0	1.2428504	804.602066346843	0.0	
1736497142530.76	3.0	1.2446736	803.423483875612	0.0	
1736497142538.57	3.0	1.2410272	805.784111742273	0.0	
1736497142546.39	3.0	1.2451294	803.129377557064	0.0	
1736497142554.2	3.0	1.2396598	806.672927524148	0.0	
1736497142562.01	3.0	1.2455852	802.835486484586	0.0	
1736497142569.82	3.0	1.2387482	807.266561517506	0.0	
1736497142577.64	3.0	1.2451294	803.129377557064	0.0	
1736497142585.45	3.0	1.239204	806.969635346561	0.0	
1736497142593.26	3.0	1.2455852	802.835486484586	0.0	
1736497142601.07	3.0	1.2396598	806.672927524148	0.0	
1736497142608.89	3.0	1.2451294	803.129377557064	0.0	
1736497142616.7	3.0	1.241483	805.488274909926	0.0	
1736497142624.51	3.0	1.2442178	803.717805676788	0.0	
1736497142632.32	3.0	1.2423946	804.897252451033	0.0	
1736497142640.14	3.0	1.2428504	804.602066346843	0.0	
1736497142647.95	3.0	1.243762	804.012343197493	0.0	
1736497142655.76	3.0	1.241483	805.488274909926	0.0	
1736497142663.57	3.0	1.2442178	803.717805676788	0.0	
1736497142671.39	3.0	1.2396598	806.672927524148	0.0	
1736497142679.2	3.0	1.2446736	803.423483875612	0.0	
1736497142687.01	3.0	1.2387482	807.266561517506	0.0	
1736497142694.82	3.0	1.2446736	803.423483875612	0.0	
1736497142702.64	3.0	1.2382924	807.563706278097	0.0	
1736497142710.45	3.0	1.2446736	803.423483875612	0.0	
1736497142718.26	3.0	1.2382924	807.563706278097	0.0	
1736497142726.07	3.0	1.2442178	803.717805676788	0.0	
1736497142733.89	3.0	1.2396598	806.672927524148	0.0	
1736497142741.7	3.0	1.243762	804.012343197493	0.0	
1736497142749.51	3.0	1.2410272	805.784111742273	0.0	
1736497142757.32	3.0	1.2428504	804.602066346843	0.0	
1736497142765.14	3.0	1.2428504	804.602066346843	0.0	
1736497142772.95	3.0	1.241483	805.488274909926	0.0	
1736497142780.76	3.0	1.2433062	804.307096674978	0.0	
1736497142788.57	3.0	1.2401156	806.376437809507	0.0	
1736497142796.39	3.0	1.2442178	803.717805676788	0.0	
1736497142804.2	3.0	1.2382924	807.563706278097	0.0	
1736497142812.01	3.0	1.2433062	804.307096674978	0.0	
1736497142819.82	3.0	1.2373808	808.15865253445	0.0	
1736497142827.64	3.0	1.2442178	803.717805676788	0.0	
1736497142835.45	3.0	1.2378366	807.861069869804	0.0	
1736497142843.26	3.0	1.2442178	803.717805676788	0.0	
1736497142851.07	3.0	1.2387482	807.266561517506	0.0	
1736497142858.89	3.0	1.243762	804.012343197493	0.0	
1736497142866.7	3.0	1.2401156	806.376437809507	0.0	
1736497142874.51	3.0	1.2433062	804.307096674978	0.0	
1736497142882.32	3.0	1.241483	805.488274909926	0.0	
1736497142890.14	3.0	1.2419388	805.192655225845	0.0	
1736497142897.95	3.0	1.2423946	804.897252451033	0.0	
1736497142905.76	3.0	1.2396598	806.672927524148	0.0	
1736497142913.57	3.0	1.2428504	804.602066346843	0.0	
1736497142921.39	3.0	1.2378366	807.861069869804	0.0	
1736497142929.2	3.0	1.2428504	804.602066346843	0.0	
1736497142937.01	3.0	1.2364692	808.754476051648	0.0	
1736497142944.82	3.0	1.2428504	804.602066346843	0.0	
1736497142952.64	3.0	1.2355576	809.351178771431	0.0	
1736497142960.45	3.0	1.2428504	804.602066346843	0.0	
1736497142968.26	3.0	1.2360134	809.052717389634	0.0	
1736497142976.07	3.0	1.2423946	804.897252451033	0.0	
1736497142983.89	3.0	1.2373808	808.15865253445	0.0	
1736497142991.7	3.0	1.2419388	805.192655225845	0.0	
1736497142999.51	3.0	1.2387482	807.266561517506	0.0	
1736497143007.32	3.0	1.2410272	805.784111742273	0.0	
1736497143015.14	3.0	1.2401156	806.376437809507	0.0	
1736497143022.95	3.0	1.239204	806.969635346561	0.0	
1736497143030.76	3.0	1.2410272	805.784111742273	0.0	
1736497143038.57	3.0	1.2378366	807.861069869804	0.0	
1736497143046.39	3.0	1.2419388	805.192655225845	0.0	
1736497143054.2	3.0	1.2364692	808.754476051648	0.0	
1736497143062.01	3.0	1.2428504	804.602066346843	0.0	
1736497143069.82	3.0	1.2360134	809.052717389634	0.0	
1736497143077.64	3.0	1.2433062	804.307096674978	0.0	
1736497143085.45	3.0	1.2364692	808.754476051648	0.0	
1736497143093.26	3.0	1.2433062	804.307096674978	0.0	
1736497143101.07	3.0	1.2373808	808.15865253445	0.0	
1736497143108.89	3.0	1.2428504	804.602066346843	0.0	
1736497143116.7	3.0	1.2387482	807.266561517506	0.0	
1736497143124.51	3.0	1.2419388	805.192655225845	0.0	
1736497143132.32	3.0	1.2405714	806.080165962233	0.0	
1736497143140.14	3.0	1.241483	805.488274909926	0.0	
1736497143147.95	3.0	1.2419388	805.192655225845	0.0	
1736497143155.76	3.0	1.2396598	806.672927524148	0.0	
1736497143163.57	3.0	1.2423946	804.897252451033	0.0	
1736497143171.39	3.0	1.2373808	808.15865253445	0.0	
1736497143179.2	3.0	1.2423946	804.897252451033	0.0	
1736497143187.01	3.0	1.2364692	808.754476051648	0.0	
1736497143194.82	3.0	1.2423946	804.897252451033	0.0	
1736497143202.64	3.0	1.2355576	809.351178771431	0.0	
1736497143210.45	3.0	1.2423946	804.897252451033	0.0	
1736497143218.26	3.0	1.2360134	809.052717389634	0.0	
1736497143226.07	3.0	1.2423946	804.897252451033	0.0	
1736497143233.89	3.0	1.236925	808.456454514219	0.0	
1736497143241.7	3.0	1.241483	805.488274909926	0.0	
1736497143249.51	3.0	1.2382924	807.563706278097	0.0	
1736497143257.32	3.0	1.2405714	806.080165962233	0.0	
1736497143265.14	3.0	1.2401156	806.376437809507	0.0	
1736497143272.95	3.0	1.239204	806.969635346561	0.0	
1736497143280.76	3.0	1.2405714	806.080165962233	0.0	
1736497143288.57	3.0	1.2373808	808.15865253445	0.0	
1736497143296.39	3.0	1.241483	805.488274909926	0.0	
1736497143304.2	3.0	1.2355576	809.351178771431	0.0	
1736497143312.01	3.0	1.2419388	805.192655225845	0.0	
1736497143319.82	3.0	1.2351018	809.649860440653	0.0	
1736497143327.64	3.0	1.2419388	805.192655225845	0.0	
1736497143335.45	3.0	1.2351018	809.649860440653	0.0	
1736497143343.26	3.0	1.241483	805.488274909926	0.0	
1736497143351.07	3.0	1.2355576	809.351178771431	0.0	
1736497143358.89	3.0	1.241483	805.488274909926	0.0	
1736497143366.7	3.0	1.236925	808.456454514219	0.0	
1736497143374.51	3.0	1.2405714	806.080165962233	0.0	
1736497143382.32	3.0	1.2378366	807.861069869804	0.0	
1736497143390.14	3.0	1.2387482	807.266561517506	0.0	
1736497143397.95	3.0	1.2396598	806.672927524148	0.0	
1736497143405.76	3.0	1.2378366	807.861069869804	0.0	
1736497143413.57	3.0	1.2405714	806.080165962233	0.0	
1736497143421.39	3.0	1.2360134	809.052717389634	0.0	
1736497143429.2	3.0	1.2410272	805.784111742273	0.0	
1736497143437.01	3.0	1.234646	809.948762641275	0.0	
1736497143444.82	3.0	1.2410272	805.784111742273	0.0	
1736497143452.64	3.0	1.234646	809.948762641275	0.0	
1736497143460.45	3.0	1.2410272	805.784111742273	0.0	
1736497143468.26	3.0	1.234646	809.948762641275	0.0	
1736497143476.07	3.0	1.2410272	805.784111742273	0.0	
1736497143483.89	3.0	1.2355576	809.351178771431	0.0	
1736497143491.7	3.0	1.2401156	806.376437809507	0.0	
1736497143499.51	3.0	1.236925	808.456454514219	0.0	
1736497143507.32	3.0	1.239204	806.969635346561	0.0	
1736497143515.14	3.0	1.2382924	807.563706278097	0.0	
1736497143522.95	3.0	1.2378366	807.861069869804	0.0	
1736497143530.76	3.0	1.2396598	806.672927524148	0.0	
1736497143538.57	3.0	1.2364692	808.754476051648	0.0	
1736497143546.39	3.0	1.2401156	806.376437809507	0.0	
1736497143554.2	3.0	1.2351018	809.649860440653	0.0	
1736497143562.01	3.0	1.2405714	806.080165962233	0.0	
1736497143569.82	3.0	1.2341902	810.24788561763	0.0	
1736497143577.64	3.0	1.2405714	806.080165962233	0.0	
1736497143585.45	3.0	1.2341902	810.24788561763	0.0	
1736497143593.26	3.0	1.2401156	806.376437809507	0.0	
1736497143601.07	3.0	1.234646	809.948762641275	0.0	
1736497143608.89	3.0	1.2401156	806.376437809507	0.0	
1736497143616.7	3.0	1.2360134	809.052717389634	0.0	
1736497143624.51	3.0	1.239204	806.969635346561	0.0	
1736497143632.32	3.0	1.2373808	808.15865253445	0.0	
1736497143640.14	3.0	1.2387482	807.266561517506	0.0	
1736497143647.95	3.0	1.239204	806.969635346561	0.0	
1736497143655.76	3.0	1.2378366	807.861069869804	0.0	
1736497143663.57	3.0	1.2401156	806.376437809507	0.0	
1736497143671.39	3.0	1.2364692	808.754476051648	0.0	
1736497143679.2	3.0	1.2405714	806.080165962233	0.0	
1736497143687.01	3.0	1.2355576	809.351178771431	0.0	
1736497143694.82	3.0	1.2405714	806.080165962233	0.0	
1736497143702.64	3.0	1.2351018	809.649860440653	0.0	
1736497143710.45	3.0	1.2405714	806.080165962233	0.0	
1736497143718.26	3.0	1.2355576	809.351178771431	0.0	
1736497143726.07	3.0	1.2405714	806.080165962233	0.0	
1736497143733.89	3.0	1.2360134	809.052717389634	0.0	
1736497143741.7	3.0	1.2401156	806.376437809507	0.0	
1736497143749.51	3.0	1.236925	808.456454514219	0.0	
1736497143757.32	3.0	1.239204	806.969635346561	0.0	
1736497143765.14	3.0	1.2382924	807.563706278097	0.0	
1736497143772.95	3.0	1.2378366	807.861069869804	0.0	
1736497143780.76	3.0	1.239204	806.969635346561	0.0	
1736497143788.57	3.0	1.2364692	808.754476051648	0.0	
1736497143796.39	3.0	1.239204	806.969635346561	0.0	
1736497143804.2	3.0	1.2351018	809.649860440653	0.0	
1736497143812.01	3.0	1.239204	806.969635346561	0.0	
1736497143819.82	3.0	1.2332786	810.846794876681	55.6776556776557	
1736497143827.64	3.0	1.2305438	812.648846794401	194.871794871795	
1736497143835.45	3.0	1.2104886	826.11269531989	356.776556776557	
1736497143843.26	3.0	1.1977262	834.915358785672	518.681318681319	
1736497143851.07	3.0	1.1740246	851.770908377899	669.59706959707	
1736497143858.89	3.0	1.1608064	861.470095271701	800.0	
1736497143866.7	3.0	1.1416628	875.915375363023	907.692307692308	
1736497143874.51	3.0	1.1311794	884.033072030838	995.604395604396	
1736497143882.32	3.0	1.1188728	893.756645080656	1063.00366300366	
1736497143890.14	3.0	1.11158	899.620360207992	1111.35531135531	
1736497143897.95	3.0	1.1051988	904.814590822936	1143.58974358974	
1736497143905.76	3.0	1.100185	908.938042238351	1164.10256410256	
1736497143913.57	3.0	1.0997292	909.314765853266	1173.62637362637	
1736497143921.39	3.0	1.0951712	913.099248774986	1177.28937728938	
1736497143929.2	3.0	1.0983618	910.446812698694	1178.02197802198	
1736497143937.01	3.0	1.0942596	913.85992866775	1175.82417582418	
1736497143944.82	3.0	1.0997292	909.314765853266	1175.09157509158	
1736497143952.64	3.0	1.0938038	914.240744089571	1173.62637362637	
1736497143960.45	3.0	1.1006408	908.561630642804	1168.49816849817	
1736497143968.26	3.0	1.0960828	912.339834180411	1164.10256410256	
1736497143976.07	3.0	1.1020082	907.434264100757	1158.97435897436	
1736497143983.89	3.0	1.0983618	910.446812698694	1154.57875457875	
1736497143991.7	3.0	1.1033756	906.309691822078	1153.11355311355	
1736497143999.51	3.0	1.1006408	908.561630642804	1150.91575091575	
1736497144007.32	3.0	1.1038314	905.935453548431	1145.78754578755	
1736497144015.14	3.0	1.1033756	906.309691822078	1139.92673992674	
1736497144022.95	3.0	1.1042872	905.56152421218	1135.53113553114	
1736497144030.76	3.0	1.1056546	904.441586007058	1133.33333333333	
1736497144038.57	3.0	1.1038314	905.935453548431	1130.40293040293	
1736497144046.39	3.0	1.107022	903.324414510281	1126.73992673993	
1736497144054.2	3.0	1.1033756	906.309691822078	1122.34432234432	
1736497144062.01	3.0	1.1088452	901.839138592113	1120.14652014652	
1736497144069.82	3.0	1.1038314	905.935453548431	1120.87912087912	
1736497144077.64	3.0	1.1097568	901.098330733364	1120.14652014652	
1736497144085.45	3.0	1.1038314	905.935453548431	1117.21611721612	
1736497144093.26	3.0	1.1097568	901.098330733364	1115.01831501832	
1736497144101.07	3.0	1.1051988	904.814590822936	1112.82051282051	
1736497144108.89	3.0	1.1102126	900.728383014208	1110.62271062271	
1736497144116.7	3.0	1.1065662	903.696498230291	1108.42490842491	
1736497144124.51	3.0	1.1102126	900.728383014208	1107.69230769231	
1736497144132.32	3.0	1.1083894	902.209999482131	1107.69230769231	
1736497144140.14	3.0	1.1097568	901.098330733364	1108.42490842491	
1736497144147.95	3.0	1.1097568	901.098330733364	1109.89010989011	
1736497144155.76	3.0	1.1079336	902.58116551389	1112.08791208791	
1736497144163.57	3.0	1.1097568	901.098330733364	1112.82051282051	
1736497144171.39	3.0	1.1061104	904.068888602801	1113.55311355311	
1736497144179.2	3.0	1.1102126	900.728383014208	1113.55311355311	
1736497144187.01	3.0	1.1051988	904.814590822936	1114.28571428571	
1736497144194.82	3.0	1.1106684	900.358738935942	1119.41391941392	
1736497144202.64	3.0	1.1042872	905.56152421218	1130.40293040293	
1736497144210.45	3.0	1.1088452	901.839138592113	1152.38095238095	
1736497144218.26	3.0	1.1006408	908.561630642804	1188.27838827839	
1736497144226.07	3.0	1.1020082	907.434264100757	1243.22344322344	
1736497144233.89	3.0	1.0906132	916.915364677413	1320.14652014652	
1736497144241.7	3.0	1.0860552	920.763511836231	1418.31501831502	
1736497144249.51	3.0	1.0714696	933.297594257457	1533.33333333333	
1736497144257.32	3.0	1.0600746	943.329837352956	1656.41025641026	
1736497144265.14	3.0	1.0445774	957.324943082245	1776.55677655678	
1736497144272.95	3.0	1.0299918	970.881515755757	1879.85347985348	
1736497144280.76	3.0	1.018141	982.182232126984	1957.50915750916	
1736497144288.57	3.0	1.0058344	994.199442771096	2004.3956043956	
1736497144296.39	3.0	1.0017322	998.270795328332	2018.31501831502	
1736497144304.2	3.0	0.995351	1004.67071415008	1998.5347985348	
1736497144312.01	3.0	1.0012764	998.725227120104	1947.98534798535	
1736497144319.82	3.0	1.0008206	999.180072832234	1873.26007326007	
1736497144327.64	3.0	1.0154062	984.827549802237	1780.21978021978	
1736497144335.45	3.0	1.0213316	979.11393322208	1676.19047619048	
1736497144343.26	3.0	1.0395636	961.942107245771	1567.76556776557	
1736497144351.07	3.0	1.047768	954.409754831222	1464.46886446886	
1736497144358.89	3.0	1.066	938.086303939962	1367.76556776557	
1736497144366.7	3.0	1.0746602	930.526691134556	1279.85347985348	
1736497144374.51	3.0	1.0892458	918.066427247183	1201.4652014652	
1736497144382.32	3.0	1.0974502	911.203077825308	1133.33333333333	
1736497144390.14	3.0	1.1074778	902.952637064147	1079.85347985348	
1736497144397.95	3.0	1.1143148	897.412472669303	1040.29304029304	
1736497144405.76	3.0	1.118417	894.120886932155	1012.45421245421	
1736497144413.57	3.0	1.1243424	889.408777966569	994.139194139194	
1736497144421.39	3.0	1.1234308	890.130482447161	981.684981684982	
1736497144429.2	3.0	1.1289004	885.817739102582	977.289377289377	
1736497144437.01	3.0	1.1243424	889.408777966569	979.487179487179	
1736497144444.82	3.0	1.1293562	885.460229465247	987.545787545787	
1736497144452.64	3.0	1.122975	890.491774082237	1000.0	
1736497144460.45	3.0	1.1270772	887.25066925318	1019.78021978022	
1736497144468.26	3.0	1.1188728	893.756645080656	1041.75824175824	
1736497144476.07	3.0	1.1216076	891.577410852066	1063.73626373626	
1736497144483.89	3.0	1.1143148	897.412472669303	1086.44688644689	
1736497144491.7	3.0	1.1156822	896.312587939469	1108.42490842491	
1736497144499.51	3.0	1.1097568	901.098330733364	1131.13553113553	
1736497144507.32	3.0	1.1097568	901.098330733364	1155.31135531136	
1736497144515.14	3.0	1.1051988	904.814590822936	1179.48717948718	
1736497144522.95	3.0	1.1020082	907.434264100757	1201.4652014652	
1736497144530.76	3.0	1.100185	908.938042238351	1223.44322344322	
1736497144538.57	3.0	1.095627	912.71938351282	1241.02564102564	
1736497144546.39	3.0	1.0960828	912.339834180411	1254.94505494506	
1736497144554.2	3.0	1.0901574	917.298731357508	1265.93406593407	
1736497144562.01	3.0	1.093348	914.621877023601	1274.72527472527	
1736497144569.82	3.0	1.086511	920.377244224863	1280.58608058608	
1736497144577.64	3.0	1.0915248	916.149591837034	1283.51648351648	
1736497144585.45	3.0	1.0855994	921.150103804405	1282.78388278388	
1736497144593.26	3.0	1.0915248	916.149591837034	1279.12087912088	
1736497144601.07	3.0	1.086511	920.377244224863	1271.06227106227	
1736497144608.89	3.0	1.0928922	915.003327867103	1258.60805860806	
1736497144616.7	3.0	1.0901574	917.298731357508	1244.68864468864	
1736497144624.51	3.0	1.0951712	913.099248774986	1232.23443223443	
1736497144632.32	3.0	1.0947154	913.479430361535	1219.78021978022	
1736497144640.14	3.0	1.097906	910.824788278778	1210.25641025641	
1736497144647.95	3.0	1.0988176	910.069150694346	1200.0	
1736497144655.76	3.0	1.0992734	909.691801875675	1191.94139194139	
1736497144663.57	3.0	1.102464	907.059096714269	1184.61538461538	
1736497144671.39	3.0	1.100185	908.938042238351	1179.48717948718	
1736497144679.2	3.0	1.104743	905.187903430934	1175.09157509158	
1736497144687.01	3.0	1.1006408	908.561630642804	1169.96336996337	
1736497144694.82	3.0	1.1061104	904.068888602801	1164.83516483516	
1736497144702.64	3.0	1.1010966	908.185530679143	1161.90476190476	
1736497144710.45	3.0	1.107022	903.324414510281	1158.97435897436	
1736497144718.26	3.0	1.1020082	907.434264100757	1157.50915750916	
1736497144726.07	3.0	1.1074778	902.952637064147	1157.50915750916	
1736497144733.89	3.0	1.1029198	906.684239416139	1158.97435897436	
1736497144741.7	3.0	1.1074778	902.952637064147	1161.17216117216	
1736497144749.51	3.0	1.1038314	905.935453548431	1164.83516483516	
1736497144757.32	3.0	1.1061104	904.068888602801	1169.96336996337	
1736497144765.14	3.0	1.1042872	905.56152421218	1172.16117216117	
1736497144772.95	3.0	1.1042872	905.56152421218	1176.55677655678	
1736497144780.76	3.0	1.104743	905.187903430934	1178.02197802198	
1736497144788.57	3.0	1.102464	907.059096714269	1180.21978021978	
1736497144796.39	3.0	1.104743	905.187903430934	1183.15018315018	
1736497144804.2	3.0	1.100185	908.938042238351	1190.47619047619	
1736497144812.01	3.0	1.1042872	905.56152421218	1206.59340659341	
1736497144819.82	3.0	1.0969944	911.581681729642	1233.69963369963	
1736497144827.64	3.0	1.0992734	909.691801875675	1282.78388278388	
1736497144835.45	3.0	1.0874226	919.605680441072	1357.50915750916	
1736497144843.26	3.0	1.0846878	921.924262446761	1456.41025641026	
1736497144851.07	3.0	1.0678232	936.484616554501	1572.16117216117	
1736497144858.89	3.0	1.0596188	943.735615109887	1698.9010989011	
1736497144866.7	3.0	1.0400194	961.520525482505	1825.64102564103	
1736497144874.51	3.0	1.0286244	972.172155356221	1938.46153846154	
1736497144882.32	3.0	1.0122156	987.931820058888	2026.37362637363	
1736497144890.14	3.0	1.0026438	997.363171247855	2082.78388278388	
1736497144897.95	3.0	0.9944394	1005.59169316904	2105.49450549451	
1736497144905.76	3.0	0.9903372	1009.75708071958	2093.04029304029	
1736497144913.57	3.0	0.9926162	1007.43872606552	2050.54945054945	
1736497144921.39	3.0	0.9939836	1006.05281616316	1981.68498168498	
1736497144929.2	3.0	1.0053786	994.650174571052	1893.77289377289	
1736497144937.01	3.0	1.011304	988.822352131506	1792.67399267399	
1736497144944.82	3.0	1.0290802	971.741561056174	1682.05128205128	
1736497144952.64	3.0	1.0372846	964.055573561971	1572.89377289377	
1736497144960.45	3.0	1.0564282	946.585863573123	1466.66666666667	
1736497144968.26	3.0	1.0646326	939.291169554643	1369.23076923077	
1736497144976.07	3.0	1.0828646	923.476490043169	1283.51648351648	
1736497144983.89	3.0	1.08879	918.45075726265	1211.72161172161	
1736497144991.7	3.0	1.102464	907.059096714269	1155.31135531136	
1736497144999.51	3.0	1.107022	903.324414510281	1109.89010989011	
1736497145007.32	3.0	1.1156822	896.312587939469	1076.19047619048	
1736497145015.14	3.0	1.1188728	893.756645080656	1050.54945054945	
1736497145022.95	3.0	1.122975	890.491774082237	1032.23443223443	
1736497145030.76	3.0	1.1261656	887.968874204646	1021.97802197802	
1736497145038.57	3.0	1.1257098	888.328412882254	1016.84981684982	
1736497145046.39	3.0	1.1289004	885.817739102582	1017.58241758242	
1736497145054.2	3.0	1.125254	888.688242832285	1023.44322344322	
1736497145062.01	3.0	1.1284446	886.17553754965	1032.23443223443	
1736497145069.82	3.0	1.1220634	891.215237926841	1044.68864468864	
1736497145077.64	3.0	1.1266214	887.609626445938	1060.07326007326	
1736497145085.45	3.0	1.118417	894.120886932155	1077.65567765568	
1736497145093.26	3.0	1.1216076	891.577410852066	1097.4358974359	
1736497145101.07	3.0	1.113859	897.779701021404	1119.41391941392	
1736497145108.89	3.0	1.1170496	895.215395985997	1142.12454212454	
1736497145116.7	3.0	1.1097568	901.098330733364	1165.56776556777	
1736497145124.51	3.0	1.1111242	899.98939812489	1189.74358974359	
1736497145132.32	3.0	1.1056546	904.441586007058	1213.91941391941	
1736497145140.14	3.0	1.1042872	905.56152421218	1235.89743589744	
1736497145147.95	3.0	1.1006408	908.561630642804	1259.34065934066	
1736497145155.76	3.0	1.0974502	911.203077825308	1280.58608058608	
1736497145163.57	3.0	1.0965386	911.960600383789	1297.4358974359	
1736497145171.39	3.0	1.0915248	916.149591837034	1309.15750915751	
1736497145179.2	3.0	1.093348	914.621877023601	1314.28571428571	
1736497145187.01	3.0	1.0878784	919.220383454621	1315.01831501832	
1736497145194.82	3.0	1.0928922	915.003327867103	1311.35531135531	
1736497145202.64	3.0	1.0874226	919.605680441072	1301.8315018315	
1736497145210.45	3.0	1.0942596	913.85992866775	1287.17948717949	
1736497145218.26	3.0	1.0901574	917.298731357508	1270.32967032967	
1736497145226.07	3.0	1.097906	910.824788278778	1255.67765567766	
1736497145233.89	3.0	1.0947154	913.479430361535	1239.56043956044	
1736497145241.7	3.0	1.1015524	907.809741960528	1225.64102564103	
1736497145249.51	3.0	1.0997292	909.314765853266	1210.98901098901	
1736497145257.32	3.0	1.104743	905.187903430934	1196.336996337	
1736497145265.14	3.0	1.104743	905.187903430934	1183.15018315018	
1736497145272.95	3.0	1.1074778	902.952637064147	1171.42857142857	
1736497145280.76	3.0	1.1088452	901.839138592113	1161.17216117216	
1736497145288.57	3.0	1.1088452	901.839138592113	1153.84615384615	
1736497145296.39	3.0	1.1120358	899.251624812798	1150.18315018315	
1736497145304.2	3.0	1.1088452	901.839138592113	1146.52014652015	
1736497145312.01	3.0	1.113859	897.779701021404	1145.78754578755	
1736497145319.82	3.0	1.1088452	901.839138592113	1147.25274725275	
1736497145327.64	3.0	1.1143148	897.412472669303	1152.38095238095	
1736497145335.45	3.0	1.1079336	902.58116551389	1158.97435897436	
1736497145343.26	3.0	1.1129474	898.515060100774	1164.83516483516	
1736497145351.07	3.0	1.1065662	903.696498230291	1169.23076923077	
1736497145358.89	3.0	1.11158	899.620360207992	1175.09157509158	
1736497145366.7	3.0	1.1065662	903.696498230291	1179.48717948718	
1736497145374.51	3.0	1.1102126	900.728383014208	1182.41758241758	
1736497145382.32	3.0	1.107022	903.324414510281	1183.88278388278	
1736497145390.14	3.0	1.1088452	901.839138592113	1183.88278388278	
1736497145397.95	3.0	1.1079336	902.58116551389	1184.61538461538	
1736497145405.76	3.0	1.1074778	902.952637064147	1188.27838827839	
1736497145413.57	3.0	1.1083894	902.209999482131	1199.2673992674	
1736497145421.39	3.0	1.1042872	905.56152421218	1219.04761904762	
1736497145429.2	3.0	1.104743	905.187903430934	1257.87545787546	
1736497145437.01	3.0	1.095627	912.71938351282	1321.61172161172	
1736497145444.82	3.0	1.093348	914.621877023601	1411.72161172161	
1736497145452.64	3.0	1.077395	928.164693543222	1525.27472527473	
1736497145460.45	3.0	1.0696464	934.888389284534	1655.67765567766	
1736497145468.26	3.0	1.0486796	953.580102063585	1791.20879120879	
1736497145476.07	3.0	1.0377404	963.632137671425	1920.87912087912	
1736497145483.89	3.0	1.0172294	983.062424267328	2030.76923076923	
1736497145491.7	3.0	1.0076576	992.400593217379	2110.62271062271	
1736497145499.51	3.0	0.9935278	1006.51436225539	2153.84615384615	
1736497145507.32	3.0	0.9903372	1009.75708071958	2159.70695970696	
1736497145515.14	3.0	0.9866908	1013.48872412715	2127.47252747253	
1736497145522.95	3.0	0.990793	1009.29255656832	2063.00366300366	
1736497145530.76	3.0	0.9985416	1001.46053003701	1975.82417582418	
1736497145538.57	3.0	1.0072018	992.849695066073	1871.79487179487	
1736497145546.39	3.0	1.0222432	978.240794362829	1757.50915750916	
1736497145554.2	3.0	1.0331824	967.883308891053	1641.75824175824	
1736497145562.01	3.0	1.0514144	951.099775692629	1531.13553113553	
1736497145569.82	3.0	1.0605304	942.924408390368	1430.76923076923	
1736497145577.64	3.0	1.0783066	927.380023455296	1343.58974358974	
1736497145585.45	3.0	1.0846878	921.924262446761	1269.59706959707	
1736497145593.26	3.0	1.0997292	909.314765853266	1208.05860805861	
1736497145601.07	3.0	1.1029198	906.684239416139	1156.77655677656	
1736497145608.89	3.0	1.1143148	897.412472669303	1116.48351648352	
1736497145616.7	3.0	1.1156822	896.312587939469	1085.71428571429	
1736497145624.51	3.0	1.1234308	890.130482447161	1060.07326007326	
1736497145632.32	3.0	1.1238866	889.769483860738	1039.56043956044	
1736497145640.14	3.0	1.1289004	885.817739102582	1024.90842490842	
1736497145647.95	3.0	1.1293562	885.460229465247	1015.38461538462	
1736497145655.76	3.0	1.1307236	884.389429919036	1011.72161172161	
1736497145663.57	3.0	1.1316352	883.677001210284	1013.18681318681	
1736497145671.39	3.0	1.1293562	885.460229465247	1019.78021978022	
1736497145679.2	3.0	1.1316352	883.677001210284	1032.96703296703	
1736497145687.01	3.0	1.1261656	887.968874204646	1050.54945054945	
1736497145694.82	3.0	1.1279888	886.533625156562	1072.52747252747	
1736497145702.64	3.0	1.120696	892.302640501974	1097.4358974359	
1736497145710.45	3.0	1.1225192	890.853359122944	1126.00732600733	
1736497145718.26	3.0	1.1134032	898.147230042091	1155.31135531136	
1736497145726.07	3.0	1.1152264	896.678916496238	1186.08058608059	
1736497145733.89	3.0	1.107022	903.324414510281	1216.11721611722	
1736497145741.7	3.0	1.1074778	902.952637064147	1246.15384615385	
1736497145749.51	3.0	1.100185	908.938042238351	1271.06227106227	
1736497145757.32	3.0	1.100185	908.938042238351	1292.30769230769	
1736497145765.14	3.0	1.095627	912.71938351282	1309.89010989011	
1736497145772.95	3.0	1.0947154	913.479430361535	1320.87912087912	
1736497145780.76	3.0	1.0928922	915.003327867103	1326.73992673993	
1736497145788.57	3.0	1.0906132	916.915364677413	1327.47252747253	
1736497145796.39	3.0	1.0924364	915.385097018005	1323.80952380952	
1736497145804.2	3.0	1.0892458	918.066427247183	1319.41391941392	
1736497145812.01	3.0	1.0938038	914.240744089571	1309.15750915751	
1736497145819.82	3.0	1.0901574	917.298731357508	1294.50549450549	
1736497145827.64	3.0	1.0969944	911.581681729642	1276.92307692308	
1736497145835.45	3.0	1.093348	914.621877023601	1260.80586080586	
1736497145843.26	3.0	1.1010966	908.185530679143	1244.68864468864	
1736497145851.07	3.0	1.0974502	911.203077825308	1227.83882783883	
1736497145858.89	3.0	1.104743	905.187903430934	1210.25641025641	
1736497145866.7	3.0	1.102464	907.059096714269	1192.67399267399	
1736497145874.51	3.0	1.1088452	901.839138592113	1176.55677655678	
1736497145882.32	3.0	1.1079336	902.58116551389	1161.90476190476	
1736497145890.14	3.0	1.1124916	898.883191567469	1150.18315018315	
1736497145897.95	3.0	1.1124916	898.883191567469	1144.32234432234	
1736497145905.76	3.0	1.1134032	898.147230042091	1139.92673992674	
1736497145913.57	3.0	1.1147706	897.045544616982	1138.46153846154	
1736497145921.39	3.0	1.1124916	898.883191567469	1136.99633699634	
1736497145929.2	3.0	1.1156822	896.312587939469	1136.26373626374	
1736497145937.01	3.0	1.11158	899.620360207992	1136.99633699634	
1736497145944.82	3.0	1.116138	895.946558579674	1138.46153846154	
1736497145952.64	3.0	1.1102126	900.728383014208	1143.58974358974	
1736497145960.45	3.0	1.1152264	896.678916496238	1149.45054945055	
1736497145968.26	3.0	1.109301	901.468582467698	1156.77655677656	
1736497145976.07	3.0	1.113859	897.779701021404	1166.30036630037	
1736497145983.89	3.0	1.1074778	902.952637064147	1172.16117216117	
1736497145991.7	3.0	1.11158	899.620360207992	1175.82417582418	
1736497145999.51	3.0	1.107022	903.324414510281	1178.75457875458	
1736497146007.32	3.0	1.1097568	901.098330733364	1183.15018315018	
1736497146015.14	3.0	1.1074778	902.952637064147	1186.81318681319	
1736497146022.95	3.0	1.1083894	902.209999482131	1189.74358974359	
1736497146030.76	3.0	1.1074778	902.952637064147	1194.13919413919	
1736497146038.57	3.0	1.1065662	903.696498230291	1195.6043956044	
1736497146046.39	3.0	1.1074778	902.952637064147	1199.2673992674	
1736497146054.2	3.0	1.1042872	905.56152421218	1206.59340659341	
1736497146062.01	3.0	1.1065662	903.696498230291	1227.10622710623	
1736497146069.82	3.0	1.0997292	909.314765853266	1270.32967032967	
1736497146077.64	3.0	1.0988176	910.069150694346	1339.19413919414	
1736497146085.45	3.0	1.0860552	920.763511836231	1438.82783882784	
1736497146093.26	3.0	1.079674	926.205502772133	1561.17216117216	
1736497146101.07	3.0	1.0600746	943.329837352956	1698.1684981685	
1736497146108.89	3.0	1.0486796	953.580102063585	1838.09523809524	
1736497146116.7	3.0	1.027257	973.466230943182	1969.23076923077	
1736497146124.51	3.0	1.0154062	984.827549802237	2076.92307692308	
1736497146132.32	3.0	0.9985416	1001.46053003701	2154.57875457875	
1736497146140.14	3.0	0.990793	1009.29255656832	2194.87179487179	
1736497146147.95	3.0	0.9835002	1016.77661072158	2197.0695970696	
1736497146155.76	3.0	0.9825886	1017.71992876775	2162.63736263736	
1736497146163.57	3.0	0.9866908	1013.48872412715	2096.7032967033	
1736497146171.39	3.0	0.9926162	1007.43872606552	2005.1282051282	
1736497146179.2	3.0	1.0053786	994.650174571052	1897.4358974359	
1736497146187.01	3.0	1.0154062	984.827549802237	1778.02197802198	
1736497146194.82	3.0	1.0336382	967.456504606738	1656.41025641026	
1736497146202.64	3.0	1.0441216	957.742852939734	1540.65934065934	
1736497146210.45	3.0	1.063721	940.096134230686	1433.69963369963	
1736497146218.26	3.0	1.0723812	932.504225176644	1339.19413919414	
1736497146226.07	3.0	1.0897016	917.682418746563	1256.41025641026	
1736497146233.89	3.0	1.0947154	913.479430361535	1184.61538461538	
1736497146241.7	3.0	1.1088452	901.839138592113	1126.73992673993	
1736497146249.51	3.0	1.1124916	898.883191567469	1083.51648351648	
1736497146257.32	3.0	1.1220634	891.215237926841	1052.01465201465	
1736497146265.14	3.0	1.1243424	889.408777966569	1030.03663003663	
1736497146272.95	3.0	1.1289004	885.817739102582	1014.65201465201	
1736497146280.76	3.0	1.1302678	884.746075222173	1005.12820512821	
1736497146288.57	3.0	1.1311794	884.033072030838	997.069597069597	
1736497146296.39	3.0	1.1334584	882.255581678163	994.871794871795	
1736497146304.2	3.0	1.1307236	884.389429919036	996.336996336996	
1736497146312.01	3.0	1.1339142	881.900941005942	1006.59340659341	
1736497146319.82	3.0	1.127533	886.892002273991	1023.44322344322	
1736497146327.64	3.0	1.1307236	884.389429919036	1048.35164835165	
1736497146335.45	3.0	1.1220634	891.215237926841	1076.19047619048	
1736497146343.26	3.0	1.1243424	889.408777966569	1108.42490842491	
1736497146351.07	3.0	1.1147706	897.045544616982	1146.52014652015	
1736497146358.89	3.0	1.116138	895.946558579674	1188.27838827839	
1736497146366.7	3.0	1.1056546	904.441586007058	1232.23443223443	
1736497146374.51	3.0	1.1051988	904.814590822936	1276.19047619048	
1736497146382.32	3.0	1.0960828	912.339834180411	1317.21611721612	
1736497146390.14	3.0	1.0938038	914.240744089571	1353.84615384615	
1736497146397.95	3.0	1.0874226	919.605680441072	1384.61538461538	
1736497146405.76	3.0	1.084232	922.311829940455	1407.32600732601	
1736497146413.57	3.0	1.081953	924.254565586491	1419.78021978022	
1736497146421.39	3.0	1.0778508	927.772192589178	1425.64102564103	
1736497146429.2	3.0	1.079674	926.205502772133	1425.64102564103	
1736497146437.01	3.0	1.0755718	929.738023998026	1416.84981684982	
1736497146444.82	3.0	1.0810414	925.033953371258	1401.4652014652	
1736497146452.64	3.0	1.0778508	927.772192589178	1379.48717948718	
1736497146460.45	3.0	1.0860552	920.763511836231	1352.38095238095	
1736497146468.26	3.0	1.0833204	923.087943326831	1325.27472527473	
1736497146476.07	3.0	1.0924364	915.385097018005	1296.7032967033	
1736497146483.89	3.0	1.0906132	916.915364677413	1267.39926739927	
1736497146491.7	3.0	1.0992734	909.691801875675	1240.29304029304	
1736497146499.51	3.0	1.0983618	910.446812698694	1213.91941391941	
1736497146507.32	3.0	1.1061104	904.068888602801	1190.47619047619	
1736497146515.14	3.0	1.1065662	903.696498230291	1170.69597069597	
1736497146522.95	3.0	1.1106684	900.358738935942	1153.84615384615	
1736497146530.76	3.0	1.1124916	898.883191567469	1141.39194139194	
1736497146538.57	3.0	1.1134032	898.147230042091	1131.13553113553	
1736497146546.39	3.0	1.1165938	895.580828050451	1123.07692307692	
1736497146554.2	3.0	1.1147706	897.045544616982	1117.94871794872	
1736497146562.01	3.0	1.1188728	893.756645080656	1117.94871794872	
1736497146569.82	3.0	1.113859	897.779701021404	1119.41391941392	
1736497146577.64	3.0	1.1188728	893.756645080656	1125.27472527473	
1736497146585.45	3.0	1.1124916	898.883191567469	1130.40293040293	
1736497146593.26	3.0	1.1179612	894.485425791163	1136.26373626374	
1736497146601.07	3.0	1.1111242	899.98939812489	1143.58974358974	
1736497146608.89	3.0	1.116138	895.946558579674	1150.18315018315	
1736497146616.7	3.0	1.1102126	900.728383014208	1156.04395604396	
1736497146624.51	3.0	1.1143148	897.412472669303	1161.17216117216	
1736497146632.32	3.0	1.1102126	900.728383014208	1164.10256410256	
1736497146640.14	3.0	1.1129474	898.515060100774	1167.76556776557	
1736497146647.95	3.0	1.1106684	900.358738935942	1177.28937728938	
1736497146655.76	3.0	1.1102126	900.728383014208	1196.336996337	
1736497146663.57	3.0	1.1079336	902.58116551389	1232.23443223443	
1736497146671.39	3.0	1.1020082	907.434264100757	1290.10989010989	
1736497146679.2	3.0	1.097906	910.824788278778	1372.16117216117	
1736497146687.01	3.0	1.084232	922.311829940455	1476.19047619048	
1736497146694.82	3.0	1.0764834	928.950692597768	1594.13919413919	
1736497146702.64	3.0	1.056884	946.177631603847	1719.41391941392	
1736497146710.45	3.0	1.0473122	954.82512282393	1842.49084249084	
1736497146718.26	3.0	1.0268012	973.898355397325	1949.45054945055	
1736497146726.07	3.0	1.0195084	980.864895276979	2030.76923076923	
1736497146733.89	3.0	1.0030996	996.90997783271	2081.31868131868	
1736497146741.7	3.0	1.0012764	998.725227120104	2095.23809523809	
1736497146749.51	3.0	0.9944394	1005.59169316904	2077.65567765568	
1736497146757.32	3.0	0.999909	1000.09100828175	2026.37362637363	
1736497146765.14	3.0	1.0030996	996.90997783271	1949.45054945055	
1736497146772.95	3.0	1.0140388	986.155559333627	1853.47985347985	
1736497146780.76	3.0	1.0245222	976.064745107524	1748.71794871795	
1736497146788.57	3.0	1.0372846	964.055573561971	1639.56043956044	
1736497146796.39	3.0	1.0518702	950.687641878247	1530.40293040293	
1736497146804.2	3.0	1.0628094	940.902479786122	1427.83882783883	
1736497146812.01	3.0	1.0787624	926.988185720971	1336.26373626374	
1736497146819.82	3.0	1.0869668	919.991300562262	1256.41025641026	
1736497146827.64	3.0	1.1015524	907.809741960528	1189.74358974359	
1736497146835.45	3.0	1.1056546	904.441586007058	1133.33333333333	
1736497146843.26	3.0	1.118417	894.120886932155	1085.71428571429	
1736497146851.07	3.0	1.1193286	893.392699873835	1046.88644688645	
1736497146858.89	3.0	1.1293562	885.460229465247	1018.31501831502	
1736497146866.7	3.0	1.1279888	886.533625156562	1000.7326007326	
1736497146874.51	3.0	1.1352816	880.838727589701	990.47619047619	
1736497146882.32	3.0	1.1330026	882.610507689921	986.813186813187	
1736497146890.14	3.0	1.136649	879.779069879972	987.545787545787	
1736497146897.95	3.0	1.1348258	881.192514304838	995.604395604396	
1736497146905.76	3.0	1.13437	881.546585329302	1010.25641025641	
1736497146913.57	3.0	1.1330026	882.610507689921	1032.96703296703	
1736497146921.39	3.0	1.1289004	885.817739102582	1060.07326007326	
1736497146929.2	3.0	1.1279888	886.533625156562	1092.30769230769	
1736497146937.01	3.0	1.120696	892.302640501974	1126.73992673993	
1736497146944.82	3.0	1.1202402	892.665697945851	1162.63736263736	
1736497146952.64	3.0	1.1106684	900.358738935942	1200.0	
1736497146960.45	3.0	1.11158	899.620360207992	1238.09523809524	
1736497146968.26	3.0	1.1010966	908.185530679143	1273.26007326007	
1736497146976.07	3.0	1.1029198	906.684239416139	1302.5641025641	
1736497146983.89	3.0	1.0928922	915.003327867103	1328.20512820513	
1736497146991.7	3.0	1.0960828	912.339834180411	1347.25274725275	
1736497146999.51	3.0	1.0883342	918.835409196917	1356.77655677656	
1736497147007.32	3.0	1.0915248	916.149591837034	1358.24175824176	
1736497147015.14	3.0	1.0878784	919.220383454621	1351.64835164835	
1736497147022.95	3.0	1.091069	916.532318304342	1340.65934065934	
1736497147030.76	3.0	1.091069	916.532318304342	1325.27472527473	
1736497147038.57	3.0	1.0928922	915.003327867103	1306.95970695971	
1736497147046.39	3.0	1.0965386	911.960600383789	1284.98168498168	
1736497147054.2	3.0	1.0960828	912.339834180411	1264.46886446886	
1736497147062.01	3.0	1.102464	907.059096714269	1245.42124542125	
1736497147069.82	3.0	1.0997292	909.314765853266	1230.03663003663	
1736497147077.64	3.0	1.1074778	902.952637064147	1213.18681318681	
1736497147085.45	3.0	1.1029198	906.684239416139	1197.0695970696	
1736497147093.26	3.0	1.1120358	899.251624812798	1183.15018315018	
1736497147101.07	3.0	1.107022	903.324414510281	1173.62637362637	
1736497147108.89	3.0	1.1152264	896.678916496238	1165.56776556777	
1736497147116.7	3.0	1.1097568	901.098330733364	1157.50915750916	
1736497147124.51	3.0	1.1170496	895.215395985997	1153.11355311355	
1736497147132.32	3.0	1.1129474	898.515060100774	1154.57875457875	
1736497147140.14	3.0	1.1170496	895.215395985997	1156.04395604396	
1736497147147.95	3.0	1.1143148	897.412472669303	1158.97435897436	
1736497147155.76	3.0	1.1156822	896.312587939469	1162.63736263736	
1736497147163.57	3.0	1.1152264	896.678916496238	1167.76556776557	
1736497147171.39	3.0	1.1134032	898.147230042091	1169.96336996337	
1736497147179.2	3.0	1.1156822	896.312587939469	1173.62637362637	
1736497147187.01	3.0	1.1106684	900.358738935942	1176.55677655678	
1736497147194.82	3.0	1.1147706	897.045544616982	1182.41758241758	
1736497147202.64	3.0	1.1083894	902.209999482131	1189.74358974359	
1736497147210.45	3.0	1.1143148	897.412472669303	1197.8021978022	
1736497147218.26	3.0	1.1061104	904.068888602801	1202.9304029304	
1736497147226.07	3.0	1.1129474	898.515060100774	1203.663003663	
1736497147233.89	3.0	1.1056546	904.441586007058	1204.3956043956	
1736497147241.7	3.0	1.1129474	898.515060100774	1205.12820512821	
1736497147249.51	3.0	1.1065662	903.696498230291	1210.25641025641	
1736497147257.32	3.0	1.11158	899.620360207992	1226.37362637363	
1736497147265.14	3.0	1.1056546	904.441586007058	1260.07326007326	
1736497147272.95	3.0	1.1051988	904.814590822936	1312.08791208791	
1736497147280.76	3.0	1.0974502	911.203077825308	1389.74358974359	
1736497147288.57	3.0	1.08879	918.45075726265	1490.10989010989	
1736497147296.39	3.0	1.0783066	927.380023455296	1605.86080586081	
1736497147304.2	3.0	1.0618978	941.71020977725	1726.00732600733	
1736497147312.01	3.0	1.0509586	951.512266991297	1841.02564102564	
1736497147319.82	3.0	1.031815	969.165984212286	1942.12454212454	
1736497147327.64	3.0	1.024978	975.630696463729	2019.78021978022	
1736497147335.45	3.0	1.0085692	991.503607288424	2065.20146520146	
1736497147343.26	3.0	1.009025	991.055722107976	2079.12087912088	
1736497147351.07	3.0	0.9994532	1000.54709915382	2059.34065934066	
1736497147358.89	3.0	1.0085692	991.503607288424	2009.52380952381	
1736497147366.7	3.0	1.0072018	992.849695066073	1936.26373626374	
1736497147374.51	3.0	1.0217874	978.677169047103	1845.42124542125	
1736497147382.32	3.0	1.0281686	972.603131431946	1742.12454212454	
1736497147390.14	3.0	1.0459448	956.073398902122	1627.10622710623	
1736497147397.95	3.0	1.0573398	945.769751597357	1509.15750915751	
1736497147405.76	3.0	1.0742044	930.921526666619	1391.94139194139	
1736497147413.57	3.0	1.08879	918.45075726265	1283.51648351648	
1736497147421.39	3.0	1.1015524	907.809741960528	1191.20879120879	
1736497147429.2	3.0	1.1156822	896.312587939469	1116.48351648352	
1736497147437.01	3.0	1.1216076	891.577410852066	1056.41025641026	
1736497147444.82	3.0	1.13437	881.546585329302	1009.52380952381	
1736497147452.64	3.0	1.13437	881.546585329302	977.289377289377	
1736497147460.45	3.0	1.1453092	873.126663088011	958.241758241758	
1736497147468.26	3.0	1.141207	876.265217440832	949.450549450549	
1736497147476.07	3.0	1.1498672	869.665644867512	950.915750915751	
1736497147483.89	3.0	1.1430302	874.867523185302	961.904761904762	
1736497147491.7	3.0	1.1489556	870.355651689239	978.754578754579	
1736497147499.51	3.0	1.1407512	876.615339085333	1001.4652014652	
1736497147507.32	3.0	1.1439418	874.170346778132	1025.64102564103	
1736497147515.14	3.0	1.136649	879.779069879972	1053.47985347985	
1736497147522.95	3.0	1.136649	879.779069879972	1083.51648351648	
1736497147530.76	3.0	1.1311794	884.033072030838	1117.21611721612	
1736497147538.57	3.0	1.1279888	886.533625156562	1149.45054945055	
1736497147546.39	3.0	1.1247982	889.048364408834	1179.48717948718	
1736497147554.2	3.0	1.118417	894.120886932155	1207.32600732601	
1736497147562.01	3.0	1.118417	894.120886932155	1231.50183150183	
1736497147569.82	3.0	1.1102126	900.728383014208	1254.21245421245	
1736497147577.64	3.0	1.1129474	898.515060100774	1271.79487179487	
1736497147585.45	3.0	1.1042872	905.56152421218	1284.98168498168	
1736497147593.26	3.0	1.1097568	901.098330733364	1293.77289377289	
1736497147601.07	3.0	1.1015524	907.809741960528	1301.0989010989	
1736497147608.89	3.0	1.1074778	902.952637064147	1304.7619047619	
1736497147616.7	3.0	1.100185	908.938042238351	1306.22710622711	
1736497147624.51	3.0	1.107022	903.324414510281	1304.7619047619	
1736497147632.32	3.0	1.1020082	907.434264100757	1298.9010989011	
1736497147640.14	3.0	1.1074778	902.952637064147	1290.84249084249	
1736497147647.95	3.0	1.1056546	904.441586007058	1279.85347985348	
1736497147655.76	3.0	1.109301	901.468582467698	1265.93406593407	
1736497147663.57	3.0	1.1106684	900.358738935942	1251.28205128205	
1736497147671.39	3.0	1.11158	899.620360207992	1236.63003663004	
1736497147679.2	3.0	1.1156822	896.312587939469	1224.90842490842	
1736497147687.01	3.0	1.1134032	898.147230042091	1213.18681318681	
1736497147694.82	3.0	1.1197844	893.029050949451	1200.0	
1736497147702.64	3.0	1.1152264	896.678916496238	1186.08058608059	
1736497147710.45	3.0	1.1234308	890.130482447161	1177.28937728938	
1736497147718.26	3.0	1.1179612	894.485425791163	1171.42857142857	
1736497147726.07	3.0	1.1257098	888.328412882254	1169.96336996337	
1736497147733.89	3.0	1.1193286	893.392699873835	1168.49816849817	
1736497147741.7	3.0	1.1266214	887.609626445938	1169.23076923077	
1736497147749.51	3.0	1.120696	892.302640501974	1170.69597069597	
1736497147757.32	3.0	1.1266214	887.609626445938	1172.16117216117	
1736497147765.14	3.0	1.1216076	891.577410852066	1178.02197802198	
1736497147772.95	3.0	1.125254	888.688242832285	1182.41758241758	
1736497147780.76	3.0	1.122975	890.491774082237	1185.34798534799	
1736497147788.57	3.0	1.1234308	890.130482447161	1186.81318681319	
1736497147796.39	3.0	1.1234308	890.130482447161	1190.47619047619	
1736497147804.2	3.0	1.1211518	891.939878257342	1193.40659340659	
1736497147812.01	3.0	1.1238866	889.769483860738	1196.336996337	
1736497147819.82	3.0	1.1188728	893.756645080656	1198.5347985348	
1736497147827.64	3.0	1.1243424	889.408777966569	1198.5347985348	
1736497147835.45	3.0	1.1175054	894.850262021105	1200.0	
1736497147843.26	3.0	1.1238866	889.769483860738	1202.9304029304	
1736497147851.07	3.0	1.1165938	895.580828050451	1210.25641025641	
1736497147858.89	3.0	1.122975	890.491774082237	1221.24542124542	
1736497147866.7	3.0	1.1147706	897.045544616982	1241.02564102564	
1736497147874.51	3.0	1.1193286	893.392699873835	1275.45787545788	
1736497147882.32	3.0	1.109301	901.468582467698	1335.53113553114	
1736497147890.14	3.0	1.1074778	902.952637064147	1421.24542124542	
1736497147897.95	3.0	1.0947154	913.479430361535	1528.20512820513	
1736497147905.76	3.0	1.084232	922.311829940455	1653.47985347985	
1736497147913.57	3.0	1.0687348	935.685822151576	1785.34798534799	
1736497147921.39	3.0	1.052326	950.275865083634	1909.15750915751	
1736497147929.2	3.0	1.0391078	962.364058858956	2016.11721611722	
1736497147937.01	3.0	1.0222432	978.240794362829	2099.6336996337	
1736497147944.82	3.0	1.0149504	985.269822052388	2150.91575091575	
1736497147952.64	3.0	1.0026438	997.363171247855	2170.69597069597	
1736497147960.45	3.0	1.0058344	994.199442771096	2156.04395604396	
1736497147968.26	3.0	1.0003648	999.63533303051	2112.82051282051	
1736497147976.07	3.0	1.0117598	988.376885501875	2043.95604395604	
1736497147983.89	3.0	1.0131272	987.04289056695	1955.31135531136	
1736497147991.7	3.0	1.0309034	970.022991484944	1855.67765567766	
1736497147999.51	3.0	1.0372846	964.055573561971	1747.98534798535	
1736497148007.32	3.0	1.0564282	946.585863573123	1641.02564102564	
1736497148015.14	3.0	1.0655442	938.487582213858	1538.46153846154	
1736497148022.95	3.0	1.0824088	923.865363991867	1443.22344322344	
1736497148030.76	3.0	1.0928922	915.003327867103	1356.04395604396	
1736497148038.57	3.0	1.1051988	904.814590822936	1276.92307692308	
1736497148046.39	3.0	1.1156822	896.312587939469	1208.79120879121	
1736497148054.2	3.0	1.1225192	890.853359122944	1153.11355311355	
1736497148062.01	3.0	1.1330026	882.610507689921	1109.15750915751	
1736497148069.82	3.0	1.13437	881.546585329302	1073.99267399267	
1736497148077.64	3.0	1.1443976	873.822175090196	1046.15384615385	
1736497148085.45	3.0	1.1416628	875.915375363023	1027.10622710623	
1736497148093.26	3.0	1.1507788	868.976731236272	1013.91941391941	
1736497148101.07	3.0	1.145765	872.779322112301	1006.59340659341	
1736497148108.89	3.0	1.1539694	866.574104997931	1005.86080586081	
1736497148116.7	3.0	1.1471324	871.738955328958	1010.98901098901	
1736497148124.51	3.0	1.1535136	866.916523567646	1024.17582417582	
1736497148132.32	3.0	1.1462208	872.432257380079	1045.42124542125	
1736497148140.14	3.0	1.1489556	870.355651689239	1072.52747252747	
1736497148147.95	3.0	1.1425744	875.216528569168	1106.95970695971	
1736497148155.76	3.0	1.141207	876.265217440832	1142.85714285714	
1736497148163.57	3.0	1.1357374	880.485224841588	1183.88278388278	
1736497148171.39	3.0	1.1307236	884.389429919036	1227.10622710623	
1736497148179.2	3.0	1.127533	886.892002273991	1271.06227106227	
1736497148187.01	3.0	1.1188728	893.756645080656	1314.28571428571	
1736497148194.82	3.0	1.1179612	894.485425791163	1355.31135531136	
1736497148202.64	3.0	1.1074778	902.952637064147	1393.40659340659	
1736497148210.45	3.0	1.1088452	901.839138592113	1424.17582417582	
1736497148218.26	3.0	1.0983618	910.446812698694	1447.61904761905	
1736497148226.07	3.0	1.1029198	906.684239416139	1462.27106227106	
1736497148233.89	3.0	1.0942596	913.85992866775	1465.93406593407	
1736497148241.7	3.0	1.1006408	908.561630642804	1459.34065934066	
1736497148249.51	3.0	1.0951712	913.099248774986	1446.88644688645	
1736497148257.32	3.0	1.1029198	906.684239416139	1431.50183150183	
1736497148265.14	3.0	1.1006408	908.561630642804	1410.98901098901	
1736497148272.95	3.0	1.1074778	902.952637064147	1384.61538461538	
1736497148280.76	3.0	1.1088452	901.839138592113	1356.77655677656	
1736497148288.57	3.0	1.113859	897.779701021404	1333.33333333333	
1736497148296.39	3.0	1.1175054	894.850262021105	1307.69230769231	
1736497148304.2	3.0	1.1197844	893.029050949451	1279.12087912088	
1736497148312.01	3.0	1.1261656	887.968874204646	1251.28205128205	
1736497148319.82	3.0	1.1257098	888.328412882254	1225.64102564103	
1736497148327.64	3.0	1.13437	881.546585329302	1203.663003663	
1736497148335.45	3.0	1.1316352	883.677001210284	1184.61538461538	
1736497148343.26	3.0	1.1407512	876.615339085333	1167.76556776557	
1736497148351.07	3.0	1.136649	879.779069879972	1152.38095238095	
1736497148358.89	3.0	1.1462208	872.432257380079	1139.92673992674	
1736497148366.7	3.0	1.141207	876.265217440832	1131.86813186813	
1736497148374.51	3.0	1.1494114	870.010511467	1129.67032967033	
1736497148382.32	3.0	1.1448534	873.474280637154	1131.86813186813	
1736497148390.14	3.0	1.1507788	868.976731236272	1136.26373626374	
1736497148397.95	3.0	1.1471324	871.738955328958	1143.58974358974	
1736497148405.76	3.0	1.1494114	870.010511467	1150.91575091575	
1736497148413.57	3.0	1.148044	871.046754305584	1157.50915750916	
1736497148421.39	3.0	1.148044	871.046754305584	1161.90476190476	
1736497148429.2	3.0	1.1494114	870.010511467	1167.76556776557	
1736497148437.01	3.0	1.1466766	872.085468561929	1172.16117216117	
1736497148444.82	3.0	1.150323	869.321051565517	1175.09157509158	
1736497148452.64	3.0	1.1453092	873.126663088011	1178.75457875458	
1736497148460.45	3.0	1.1516904	868.288908199634	1181.68498168498	
1736497148468.26	3.0	1.145765	872.779322112301	1186.08058608059	
1736497148476.07	3.0	1.1521462	867.945404845322	1197.8021978022	
1736497148483.89	3.0	1.1448534	873.474280637154	1227.10622710623	
1736497148491.7	3.0	1.1489556	870.355651689239	1282.78388278388	
1736497148499.51	3.0	1.1371048	879.426416984609	1366.30036630037	
1736497148507.32	3.0	1.1339142	881.900941005942	1477.65567765568	
1736497148515.14	3.0	1.1165938	895.580828050451	1609.52380952381	
1736497148522.95	3.0	1.1061104	904.068888602801	1751.64835164835	
1736497148530.76	3.0	1.0874226	919.605680441072	1895.9706959707	
1736497148538.57	3.0	1.072837	932.108046236287	2032.23443223443	
1736497148546.39	3.0	1.0564282	946.585863573123	2148.71794871795	
1736497148554.2	3.0	1.0418426	959.8378872202	2234.43223443223	
1736497148562.01	3.0	1.0336382	967.456504606738	2284.24908424908	
1736497148569.82	3.0	1.0236106	976.934002051171	2295.23809523809	
1736497148577.64	3.0	1.0268012	973.898355397325	2266.66666666667	
1736497148585.45	3.0	1.0245222	976.064745107524	2200.7326007326	
1736497148593.26	3.0	1.0395636	961.942107245771	2109.15750915751	
1736497148601.07	3.0	1.0441216	957.742852939734	1997.0695970696	
1736497148608.89	3.0	1.066	938.086303939962	1874.72527472527	
1736497148616.7	3.0	1.0755718	929.738023998026	1747.98534798535	
1736497148624.51	3.0	1.0992734	909.691801875675	1624.90842490842	
1736497148632.32	3.0	1.1097568	901.098330733364	1510.62271062271	
1736497148640.14	3.0	1.1307236	884.389429919036	1414.65201465201	
1736497148647.95	3.0	1.1407512	876.615339085333	1332.60073260073	
1736497148655.76	3.0	1.1557926	865.207131452477	1265.20146520147	
1736497148663.57	3.0	1.1644528	858.772463770107	1211.72161172161	
1736497148671.39	3.0	1.1726572	852.76413260414	1169.23076923077	
1736497148679.2	3.0	1.1804058	847.166288068053	1137.72893772894	
1736497148687.01	3.0	1.1826848	845.533822705762	1112.82051282051	
1736497148694.82	3.0	1.1908892	839.708681546528	1093.04029304029	
1736497148702.64	3.0	1.1895218	840.673958224221	1079.12087912088	
1736497148710.45	3.0	1.1977262	834.915358785672	1071.79487179487	
1736497148718.26	3.0	1.1927124	838.425088898212	1068.13186813187	
1736497148726.07	3.0	1.2018284	832.065542801285	1068.13186813187	
1736497148733.89	3.0	1.1954472	836.507041047066	1072.52747252747	
1736497148741.7	3.0	1.2031958	831.119922459836	1081.31868131868	
1736497148749.51	3.0	1.1963588	835.869640445659	1096.7032967033	
1736497148757.32	3.0	1.2022842	831.750097023649	1118.68131868132	
1736497148765.14	3.0	1.1949914	836.82610602888	1147.25274725275	
1736497148772.95	3.0	1.1977262	834.915358785672	1180.21978021978	
1736497148780.76	3.0	1.1918008	839.066394316902	1216.84981684982	
1736497148788.57	3.0	1.1899776	840.351952843482	1254.21245421245	
1736497148796.39	3.0	1.1863312	842.934924075166	1292.30769230769	
1736497148804.2	3.0	1.1808616	846.839290904201	1330.40293040293	
1736497148812.01	3.0	1.1794942	847.821040578241	1366.30036630037	
1736497148819.82	3.0	1.1717456	853.42756994351	1398.5347985348	
1736497148827.64	3.0	1.1735688	852.101725949088	1426.37362637363	
1736497148835.45	3.0	1.1644528	858.772463770107	1447.61904761905	
1736497148843.26	3.0	1.1694666	855.090688353135	1461.53846153846	
1736497148851.07	3.0	1.1608064	861.470095271701	1468.86446886447	
1736497148858.89	3.0	1.168555	855.757752095537	1471.79487179487	
1736497148866.7	3.0	1.1612622	861.13196485686	1469.59706959707	
1736497148874.51	3.0	1.1699224	854.757546312474	1458.60805860806	
1736497148882.32	3.0	1.1653644	858.100693654277	1441.02564102564	
1736497148890.14	3.0	1.1740246	851.770908377899	1421.24542124542	
1736497148897.95	3.0	1.173113	852.432800591247	1400.0	
1736497148905.76	3.0	1.1804058	847.166288068053	1376.55677655678	
1736497148913.57	3.0	1.1817732	846.186053296859	1352.38095238095	
1736497148921.39	3.0	1.1863312	842.934924075166	1327.47252747253	
1736497148929.2	3.0	1.191345	839.387415064486	1301.8315018315	
1736497148937.01	3.0	1.1927124	838.425088898212	1279.85347985348	
1736497148944.82	3.0	1.1995494	833.646367544346	1262.27106227106	
1736497148952.64	3.0	1.1972704	835.233210476097	1244.68864468864	
1736497148960.45	3.0	1.2059306	829.235115188221	1225.64102564103	
1736497148968.26	3.0	1.2022842	831.750097023649	1206.59340659341	
1736497148976.07	3.0	1.2127676	824.560286735892	1191.20879120879	
1736497148983.89	3.0	1.2077538	827.98331911686	1180.95238095238	
1736497148991.7	3.0	1.2173256	821.472907494922	1172.16117216117	
1736497148999.51	3.0	1.2123118	824.870301518141	1164.83516483516	
1736497149007.32	3.0	1.2205162	819.325462455967	1157.50915750916	
1736497149015.14	3.0	1.216414	822.088532358227	1155.31135531136	
1736497149022.95	3.0	1.2223394	818.103384379167	1153.84615384615	
1736497149030.76	3.0	1.2200604	819.631552667393	1155.31135531136	
1736497149038.57	3.0	1.223251	817.493711429625	1156.04395604396	
1736497149046.39	3.0	1.2227952	817.79843427583	1156.77655677656	
1736497149054.2	3.0	1.2227952	817.79843427583	1158.24175824176	
1736497149062.01	3.0	1.2259858	815.670132557816	1159.70695970696	
1736497149069.82	3.0	1.2227952	817.79843427583	1161.17216117216	
1736497149077.64	3.0	1.227809	814.458926429111	1166.30036630037	
1736497149085.45	3.0	1.220972	819.019600777086	1178.75457875458	
1736497149093.26	3.0	1.2273532	814.761390608669	1206.59340659341	
1736497149101.07	3.0	1.2173256	821.472907494922	1258.60805860806	
1736497149108.89	3.0	1.2196046	819.937871667588	1337.72893772894	
1736497149116.7	3.0	1.2031958	831.119922459836	1445.42124542125	
1736497149124.51	3.0	1.1986378	834.280380612058	1577.28937728938	
1736497149132.32	3.0	1.1772152	849.462358284195	1726.00732600733	
1736497149140.14	3.0	1.1658202	857.765202558679	1881.31868131868	
1736497149147.95	3.0	1.1425744	875.216528569168	2035.16483516483	
1736497149155.76	3.0	1.127533	886.892002273991	2177.28937728938	
1736497149163.57	3.0	1.1079336	902.58116551389	2291.57509157509	
1736497149171.39	3.0	1.0942596	913.85992866775	2366.30036630037	
1736497149179.2	3.0	1.0851436	921.537020538111	2398.5347985348	
1736497149187.01	3.0	1.0778508	927.772192589178	2385.34798534799	
1736497149194.82	3.0	1.081953	924.254565586491	2333.33333333333	
1736497149202.64	3.0	1.0824088	923.865363991867	2250.54945054945	
1736497149210.45	3.0	1.097906	910.824788278778	2147.25274725275	
1736497149218.26	3.0	1.1042872	905.56152421218	2026.37362637363	
1736497149226.07	3.0	1.1261656	887.968874204646	1897.4358974359	
1736497149233.89	3.0	1.1357374	880.485224841588	1764.83516483516	
1736497149241.7	3.0	1.1603506	861.80849133012	1636.63003663004	
1736497149249.51	3.0	1.1699224	854.757546312474	1516.48351648352	
1736497149257.32	3.0	1.1927124	838.425088898212	1408.79120879121	
1736497149265.14	3.0	1.2013726	832.381227938776	1312.08791208791	
1736497149272.95	3.0	1.2191488	820.244419713164	1229.30402930403	
1736497149280.76	3.0	1.2273532	814.761390608669	1158.97435897436	
1736497149288.57	3.0	1.2396598	806.672927524148	1104.0293040293	
1736497149296.39	3.0	1.2464968	802.248349133347	1061.53846153846	
1736497149304.2	3.0	1.2524222	798.452790121414	1029.30402930403	
1736497149312.01	3.0	1.2588034	794.405226423761	1010.25641025641	
1736497149319.82	3.0	1.2583476	794.692976725986	1000.0	
1736497149327.64	3.0	1.2647288	790.683346500847	998.534798534799	
1736497149335.45	3.0	1.259715	793.830350515791	1000.7326007326	
1736497149343.26	3.0	1.2660962	789.829398429598	1010.98901098901	
1736497149351.07	3.0	1.2578918	794.980935562184	1027.83882783883	
1736497149358.89	3.0	1.2638172	791.253671812664	1051.28205128205	
1736497149366.7	3.0	1.2537896	797.581986642735	1078.38827838828	
1736497149374.51	3.0	1.2578918	794.980935562184	1111.35531135531	
1736497149382.32	3.0	1.2474084	801.662069936358	1148.71794871795	
1736497149390.14	3.0	1.2492316	800.49207849049	1190.47619047619	
1736497149397.95	3.0	1.2396598	806.672927524148	1232.96703296703	
1736497149405.76	3.0	1.2387482	807.266561517506	1276.19047619048	
1736497149413.57	3.0	1.2309996	812.347948772688	1321.61172161172	
1736497149421.39	3.0	1.2268974	815.064079522868	1367.76556776557	
1736497149429.2	3.0	1.2218836	818.408561993958	1408.79120879121	
1736497149437.01	3.0	1.2150466	823.013701696709	1441.75824175824	
1736497149444.82	3.0	1.2136792	823.94095573196	1464.46886446886	
1736497149452.64	3.0	1.2063864	828.921811452782	1473.26007326007	
1736497149460.45	3.0	1.2104886	826.11269531989	1470.32967032967	
1736497149468.26	3.0	1.2036516	830.805193130637	1458.60805860806	
1736497149476.07	3.0	1.2123118	824.870301518141	1441.02564102564	
1736497149483.89	3.0	1.2068422	828.608744374368	1417.58241758242	
1736497149491.7	3.0	1.2173256	821.472907494922	1391.94139194139	
1736497149499.51	3.0	1.2132234	824.250504894647	1365.56776556777	
1736497149507.32	3.0	1.2241626	816.884946493219	1339.92673992674	
1736497149515.14	3.0	1.2214278	818.713967374903	1313.55311355311	
1736497149522.95	3.0	1.2305438	812.648846794401	1287.91208791209	
1736497149530.76	3.0	1.2305438	812.648846794401	1262.27106227106	
1736497149538.57	3.0	1.236925	808.456454514219	1239.56043956044	
1736497149546.39	3.0	1.239204	806.969635346561	1221.24542124542	
1736497149554.2	3.0	1.241483	805.488274909926	1205.86080586081	
1736497149562.01	3.0	1.2455852	802.835486484586	1196.336996337	
1736497149569.82	3.0	1.2433062	804.307096674978	1191.94139194139	
1736497149577.64	3.0	1.24832	801.076647013586	1189.74358974359	
1736497149585.45	3.0	1.2433062	804.307096674978	1186.81318681319	
1736497149593.26	3.0	1.2501432	799.908362497992	1182.41758241758	
1736497149601.07	3.0	1.243762	804.012343197493	1180.21978021978	
1736497149608.89	3.0	1.2519664	798.743480655711	1179.48717948718	
1736497149616.7	3.0	1.2446736	803.423483875612	1178.02197802198	
1736497149624.51	3.0	1.252878	798.162311094935	1174.35897435897	
1736497149632.32	3.0	1.2464968	802.248349133347	1167.76556776557	
1736497149640.14	3.0	1.2542454	797.292140756506	1161.17216117216	
1736497149647.95	3.0	1.2496874	800.20011404452	1156.77655677656	
1736497149655.76	3.0	1.2542454	797.292140756506	1151.64835164835	
1736497149663.57	3.0	1.252878	798.162311094935	1150.18315018315	
1736497149671.39	3.0	1.2547012	797.002505457076	1147.98534798535	
1736497149679.2	3.0	1.2556128	796.423865701274	1145.05494505495	
1736497149687.01	3.0	1.2542454	797.292140756506	1143.58974358974	
1736497149694.82	3.0	1.2569802	795.557479743913	1148.71794871795	
1736497149702.64	3.0	1.2515106	799.034382928918	1167.03296703297	
1736497149710.45	3.0	1.2547012	797.002505457076	1209.52380952381	
1736497149718.26	3.0	1.2433062	804.307096674978	1282.78388278388	
1736497149726.07	3.0	1.2419388	805.192655225845	1389.74358974359	
1736497149733.89	3.0	1.2218836	818.408561993958	1526.73992673993	
1736497149741.7	3.0	1.2132234	824.250504894647	1684.24908424908	
1736497149749.51	3.0	1.1872428	842.287693806187	1852.01465201465	
1736497149757.32	3.0	1.1735688	852.101725949088	2019.04761904762	
1736497149765.14	3.0	1.1462208	872.432257380079	2172.16117216117	
1736497149772.95	3.0	1.1325468	882.965719385724	2295.23809523809	
1736497149780.76	3.0	1.1129474	898.515060100774	2380.21978021978	
1736497149788.57	3.0	1.104743	905.187903430934	2421.24542124542	
1736497149796.39	3.0	1.0969944	911.581681729642	2419.04761904762	
1736497149804.2	3.0	1.0965386	911.960600383789	2375.09157509157	
1736497149812.01	3.0	1.1020082	907.434264100757	2296.7032967033	
1736497149819.82	3.0	1.1083894	902.209999482131	2189.74358974359	
1736497149827.64	3.0	1.1257098	888.328412882254	2063.00366300366	
1736497149835.45	3.0	1.1361932	880.132005718746	1925.27472527473	
1736497149843.26	3.0	1.1603506	861.80849133012	1785.34798534799	
1736497149851.07	3.0	1.1712898	853.759675871847	1651.28205128205	
1736497149858.89	3.0	1.1963588	835.869640445659	1526.73992673993	
1736497149866.7	3.0	1.2059306	829.235115188221	1415.38461538462	
1736497149874.51	3.0	1.2287206	813.854671273518	1320.14652014652	
1736497149882.32	3.0	1.2351018	809.649860440653	1241.02564102564	
1736497149890.14	3.0	1.252878	798.162311094935	1177.28937728938	
1736497149897.95	3.0	1.2565244	795.846065543972	1128.20512820513	
1736497149905.76	3.0	1.268831	788.127024008714	1090.84249084249	
1736497149913.57	3.0	1.2720216	786.150172292672	1063.73626373626	
1736497149921.39	3.0	1.2774912	782.784257144002	1043.95604395604	
1736497149929.2	3.0	1.2811376	780.556280605612	1032.23443223443	
1736497149937.01	3.0	1.2815934	780.278674968208	1027.83882783883	
1736497149944.82	3.0	1.2856956	777.789081645765	1030.03663003663	
1736497149952.64	3.0	1.2815934	780.278674968208	1038.82783882784	
1736497149960.45	3.0	1.2861514	777.513440486089	1054.21245421245	
1736497149968.26	3.0	1.2784028	782.226071469806	1074.72527472527	
1736497149976.07	3.0	1.2834166	779.170224228049	1103.2967032967	
1736497149983.89	3.0	1.273389	785.305982696568	1139.92673992674	
1736497149991.7	3.0	1.2770354	783.063648822891	1182.41758241758	
1736497149999.51	3.0	1.2651846	790.398492046141	1227.10622710623	
1736497150007.32	3.0	1.2679194	788.693666174679	1272.52747252747	
1736497150015.14	3.0	1.2565244	795.846065543972	1317.21611721612	
1736497150022.95	3.0	1.257436	795.269103159127	1360.43956043956	
1736497150030.76	3.0	1.2492316	800.49207849049	1399.2673992674	
1736497150038.57	3.0	1.24832	801.076647013586	1431.50183150183	
1736497150046.39	3.0	1.2428504	804.602066346843	1454.21245421245	
1736497150054.2	3.0	1.2410272	805.784111742273	1468.86446886447	
1736497150062.01	3.0	1.2410272	805.784111742273	1477.65567765568	
1736497150069.82	3.0	1.2378366	807.861069869804	1477.65567765568	
1736497150077.64	3.0	1.2423946	804.897252451033	1470.32967032967	
1736497150085.45	3.0	1.2387482	807.266561517506	1454.21245421245	
1736497150093.26	3.0	1.2474084	801.662069936358	1432.96703296703	
1736497150101.07	3.0	1.2442178	803.717805676788	1408.79120879121	
1736497150108.89	3.0	1.2556128	796.423865701274	1382.41758241758	
1736497150116.7	3.0	1.2524222	798.452790121414	1351.64835164835	
1736497150124.51	3.0	1.2651846	790.398492046141	1318.68131868132	
1736497150132.32	3.0	1.2633614	791.539143114551	1289.37728937729	
1736497150140.14	3.0	1.2747564	784.463604183513	1260.07326007326	
1736497150147.95	3.0	1.2743006	784.744196149637	1230.76923076923	
1736497150155.76	3.0	1.2843282	778.617179004557	1205.12820512821	
1736497150163.57	3.0	1.2856956	777.789081645765	1184.61538461538	
1736497150171.39	3.0	1.291621	774.220920842879	1166.30036630037	
1736497150179.2	3.0	1.2948116	772.313130342669	1150.18315018315	
1736497150187.01	3.0	1.2970906	770.956169137298	1136.26373626374	
1736497150194.82	3.0	1.3021044	767.987574575433	1125.27472527473	
1736497150202.64	3.0	1.300737	768.794921648265	1119.41391941392	
1736497150210.45	3.0	1.307574	764.775072003573	1118.68131868132	
1736497150218.26	3.0	1.3025602	767.718835567062	1120.87912087912	
1736497150226.07	3.0	1.3093972	763.710201915813	1125.27472527473	
1736497150233.89	3.0	1.303016	767.450284570566	1129.67032967033	
1736497150241.7	3.0	1.3116762	762.3832772143	1129.67032967033	
1736497150249.51	3.0	1.3057508	765.842915815177	1128.93772893773	
1736497150257.32	3.0	1.3139552	761.060955502897	1126.00732600733	
1736497150265.14	3.0	1.3093972	763.710201915813	1122.34432234432	
1736497150272.95	3.0	1.31669	759.480211743083	1118.68131868132	
1736497150280.76	3.0	1.3139552	761.060955502897	1115.01831501832	
1736497150288.57	3.0	1.3194248	757.906020866062	1115.01831501832	
1736497150296.39	3.0	1.3185132	758.430025577294	1128.20512820513	
1736497150304.2	3.0	1.3185132	758.430025577294	1161.90476190476	
1736497150312.01	3.0	1.31669	759.480211743083	1223.44322344322	
1736497150319.82	3.0	1.3080298	764.508576180757	1318.68131868132	
1736497150327.64	3.0	1.3011928	768.525617418111	1446.15384615385	
1736497150335.45	3.0	1.2820492	780.001266722057	1600.0	
1736497150343.26	3.0	1.2706542	786.996178818753	1770.69597069597	
1736497150351.07	3.0	1.243762	804.012343197493	1945.78754578755	
1736497150358.89	3.0	1.230088	812.949967807182	2115.01831501831	
1736497150366.7	3.0	1.2022842	831.750097023649	2260.07326007326	
1736497150374.51	3.0	1.1918008	839.066394316902	2372.89377289377	
1736497150382.32	3.0	1.170834	854.092040374639	2441.75824175824	
1736497150390.14	3.0	1.1680992	856.091674405736	2467.39926739927	
1736497150397.95	3.0	1.159439	862.486081630858	2449.08424908425	
1736497150405.76	3.0	1.1667318	857.095006753052	2387.54578754579	
1736497150413.57	3.0	1.170834	854.092040374639	2293.77289377289	
1736497150421.39	3.0	1.1849638	843.907636672108	2177.28937728938	
1736497150429.2	3.0	1.1990936	833.963253577536	2045.42124542125	
1736497150437.01	3.0	1.2159582	822.396690938882	1904.0293040293	
1736497150444.82	3.0	1.2373808	808.15865253445	1763.36996336996	
1736497150452.64	3.0	1.2524222	798.452790121414	1628.57142857143	
1736497150460.45	3.0	1.2752122	784.18321280176	1504.0293040293	
1736497150468.26	3.0	1.2866072	777.237994626487	1394.13919413919	
1736497150476.07	3.0	1.3084856	764.242266021116	1301.0989010989	
1736497150483.89	3.0	1.3148668	760.533310294244	1224.17582417582	
1736497150491.7	3.0	1.3335546	749.875558151125	1161.17216117216	
1736497150499.51	3.0	1.3353778	748.851748171941	1109.15750915751	
1736497150507.32	3.0	1.3504192	740.510798424667	1069.59706959707	
1736497150515.14	3.0	1.3499634	740.760823589736	1040.29304029304	
1736497150522.95	3.0	1.3609026	734.806443899806	1018.31501831502	
1736497150530.76	3.0	1.359991	735.298983596215	1003.663003663	
1736497150538.57	3.0	1.3663722	731.865007206675	996.336996336996	
1736497150546.39	3.0	1.3663722	731.865007206675	996.336996336996	
1736497150554.2	3.0	1.3681954	730.889754489746	1003.663003663	
1736497150562.01	3.0	1.3686512	730.646347294329	1018.31501831502	
1736497150569.82	3.0	1.3654606	732.353610203033	1040.29304029304	
1736497150577.64	3.0	1.366828	731.620950112231	1070.32967032967	
1736497150585.45	3.0	1.3586236	736.039032444306	1105.49450549451	
1736497150593.26	3.0	1.3609026	734.806443899806	1146.52014652015	
1736497150601.07	3.0	1.3495076	741.011017648215	1192.67399267399	
1736497150608.89	3.0	1.3517866	739.761734581479	1241.02564102564	
1736497150616.7	3.0	1.3390242	746.812492261156	1291.57509157509	
1736497150624.51	3.0	1.3413032	745.543587758532	1336.26373626374	
1736497150632.32	3.0	1.3289966	752.447372702082	1375.82417582418	
1736497150640.14	3.0	1.3321872	750.645254660907	1409.52380952381	
1736497150647.95	3.0	1.3230712	755.817222837289	1432.96703296703	
1736497150655.76	3.0	1.325806	754.258164467501	1446.88644688645	
1736497150663.57	3.0	1.3207922	757.121370038375	1452.01465201465	
1736497150671.39	3.0	1.3230712	755.817222837289	1449.08424908425	
1736497150679.2	3.0	1.3230712	755.817222837289	1437.36263736264	
1736497150687.01	3.0	1.3244386	755.036888837278	1418.31501831502	
1736497150694.82	3.0	1.3294524	752.189397679827	1393.40659340659	
1736497150702.64	3.0	1.3289966	752.447372702082	1367.76556776557	
1736497150710.45	3.0	1.337201	747.830730009924	1340.65934065934	
1736497150718.26	3.0	1.334922	749.107438487043	1311.35531135531	
1736497150726.07	3.0	1.3454054	743.270392700966	1281.31868131868	
1736497150733.89	3.0	1.3426706	744.784312697396	1251.28205128205	
1736497150741.7	3.0	1.3540656	738.516656800084	1222.71062271062	
1736497150749.51	3.0	1.3504192	740.510798424667	1195.6043956044	
1736497150757.32	3.0	1.3618142	734.314563616681	1174.35897435897	
1736497150765.14	3.0	1.3586236	736.039032444306	1156.04395604396	
1736497150772.95	3.0	1.3677396	731.133323916336	1142.12454212454	
1736497150780.76	3.0	1.3654606	732.353610203033	1129.67032967033	
1736497150788.57	3.0	1.371386	729.189301917914	1118.68131868132	
1736497150796.39	3.0	1.3704744	729.674337587043	1109.89010989011	
1736497150804.2	3.0	1.3741208	727.738056217474	1103.2967032967	
1736497150812.01	3.0	1.375944	726.773764048537	1101.8315018315	
1736497150819.82	3.0	1.3745766	727.496743360828	1103.2967032967	
1736497150827.64	3.0	1.3773114	726.052220289471	1105.49450549451	
1736497150835.45	3.0	1.3722976	728.704910654948	1106.95970695971	
1736497150843.26	3.0	1.3768556	726.29257563393	1108.42490842491	
1736497150851.07	3.0	1.3700186	729.917097475903	1109.89010989011	
1736497150858.89	3.0	1.3763998	726.533090167552	1109.89010989011	
1736497150866.7	3.0	1.3686512	730.646347294329	1108.42490842491	
1736497150874.51	3.0	1.3763998	726.533090167552	1104.0293040293	
1736497150882.32	3.0	1.369107	730.403102168056	1104.0293040293	
1736497150890.14	3.0	1.375944	726.773764048537	1108.42490842491	
1736497150897.95	3.0	1.369107	730.403102168056	1123.07692307692	
1736497150905.76	3.0	1.3727534	728.462956274594	1155.31135531136	
1736497150913.57	3.0	1.3650048	732.598156431391	1216.11721611722	
1736497150921.39	3.0	1.3604468	735.052631238502	1312.82051282051	
1736497150929.2	3.0	1.3476844	742.013486243515	1443.22344322344	
1736497150937.01	3.0	1.3312756	751.159264092274	1601.4652014652	
1736497150944.82	3.0	1.3134994	761.32505275602	1778.75457875458	
1736497150952.64	3.0	1.2879746	776.41282677469	1964.10256410256	
1736497150960.45	3.0	1.268831	788.127024008714	2141.39194139194	
1736497150968.26	3.0	1.2401156	806.376437809507	2297.4358974359	
1736497150976.07	3.0	1.22553	815.973497180812	2418.31501831502	
1736497150983.89	3.0	1.2018284	832.065542801285	2498.1684981685	
1736497150991.7	3.0	1.1972704	835.233210476097	2534.06593406593	
1736497150999.51	3.0	1.1835964	844.882596804113	2523.07692307692	
1736497151007.32	3.0	1.1908892	839.708681546528	2471.79487179487	
1736497151015.14	3.0	1.189066	840.996210471076	2382.41758241758	
1736497151022.95	3.0	1.2054748	829.548655849131	2263.73626373626	
1736497151030.76	3.0	1.2145908	823.322554394451	2127.47252747253	
1736497151038.57	3.0	1.2360134	809.052717389634	1980.21978021978	
1736497151046.39	3.0	1.2519664	798.743480655711	1833.69963369963	
1736497151054.2	3.0	1.2720216	786.150172292672	1694.50549450549	
1736497151062.01	3.0	1.2902536	775.041433715046	1564.10256410256	
1736497151069.82	3.0	1.3057508	765.842915815177	1446.88644688645	
1736497151077.64	3.0	1.323527	755.556932348188	1343.58974358974	
1736497151085.45	3.0	1.332643	750.388513652944	1254.21245421245	
1736497151093.26	3.0	1.3490518	741.261380771294	1178.75457875458	
1736497151101.07	3.0	1.3526982	739.263200024958	1116.48351648352	
1736497151108.89	3.0	1.3677396	731.133323916336	1067.39926739927	
1736497151116.7	3.0	1.366828	731.620950112231	1027.83882783883	
1736497151124.51	3.0	1.3786788	725.332107812204	1000.0	
1736497151132.32	3.0	1.3750324	727.25559048645	980.952380952381	
1736497151140.14	3.0	1.3846042	722.228056219965	969.96336996337	
1736497151147.95	3.0	1.3791346	725.092387646572	967.032967032967	
1736497151155.76	3.0	1.38506	721.990383088097	971.428571428571	
1736497151163.57	3.0	1.3800462	724.613422362237	983.882783882784	
1736497151171.39	3.0	1.3814136	723.896159701917	1002.1978021978	
1736497151179.2	3.0	1.3773114	726.052220289471	1029.30402930403	
1736497151187.01	3.0	1.373665	727.979529215638	1061.53846153846	
1736497151194.82	3.0	1.3704744	729.674337587043	1098.1684981685	
1736497151202.64	3.0	1.36227	734.068870341415	1138.46153846154	
1736497151210.45	3.0	1.3604468	735.052631238502	1180.95238095238	
1736497151218.26	3.0	1.3490518	741.261380771294	1224.17582417582	
1736497151226.07	3.0	1.3490518	741.261380771294	1267.39926739927	
1736497151233.89	3.0	1.3358336	748.596232345107	1309.89010989011	
1736497151241.7	3.0	1.3376568	747.575910353089	1347.25274725275	
1736497151249.51	3.0	1.3244386	755.036888837278	1379.48717948718	
1736497151257.32	3.0	1.3271734	753.481044752705	1405.12820512821	
1736497151265.14	3.0	1.31669	759.480211743083	1419.78021978022	
1736497151272.95	3.0	1.3203364	757.382739732087	1425.64102564103	
1736497151280.76	3.0	1.3134994	761.32505275602	1419.78021978022	
1736497151288.57	3.0	1.3180574	758.692299743547	1405.86080586081	
1736497151296.39	3.0	1.3162342	759.743212871995	1381.68498168498	
1736497151304.2	3.0	1.3203364	757.382739732087	1352.38095238095	
1736497151312.01	3.0	1.3230712	755.817222837289	1323.07692307692	
1736497151319.82	3.0	1.3248944	754.777135445663	1295.9706959707	
1736497151327.64	3.0	1.3299082	751.931599489348	1273.99267399267	
1736497151335.45	3.0	1.328085	752.96385397019	1252.74725274725	
1736497151343.26	3.0	1.3358336	748.596232345107	1231.50183150183	
1736497151351.07	3.0	1.3312756	751.159264092274	1208.79120879121	
1736497151358.89	3.0	1.3403916	746.050631770596	1188.27838827839	
1736497151366.7	3.0	1.3344662	749.363303469207	1169.23076923077	
1736497151374.51	3.0	1.344038	744.026582581742	1151.64835164835	
1736497151382.32	3.0	1.3385684	747.066791655921	1133.33333333333	
1736497151390.14	3.0	1.3476844	742.013486243515	1115.75091575092	
1736497151397.95	3.0	1.3431264	744.531564564586	1101.0989010989	
1736497151405.76	3.0	1.3504192	740.510798424667	1087.17948717949	
1736497151413.57	3.0	1.3472286	742.264527341536	1076.19047619048	
1736497151421.39	3.0	1.3513308	740.011254091152	1068.13186813187	
1736497151429.2	3.0	1.3499634	740.760823589736	1063.73626373626	
1736497151437.01	3.0	1.3504192	740.510798424667	1063.73626373626	
1736497151444.82	3.0	1.350875	740.260941982049	1067.39926739927	
1736497151452.64	3.0	1.3472286	742.264527341536	1071.06227106227	
1736497151460.45	3.0	1.3495076	741.011017648215	1076.19047619048	
1736497151468.26	3.0	1.3431264	744.531564564586	1079.12087912088	
1736497151476.07	3.0	1.3476844	742.013486243515	1081.31868131868	
1736497151483.89	3.0	1.33948	746.558365933049	1082.78388278388	
1736497151491.7	3.0	1.3458612	743.018670870369	1084.24908424908	
1736497151499.51	3.0	1.3376568	747.575910353089	1090.10989010989	
1736497151507.32	3.0	1.3435822	744.278987917524	1102.5641025641	
1736497151515.14	3.0	1.3340104	749.619343297474	1129.67032967033	
1736497151522.95	3.0	1.3367452	748.085723442283	1180.95238095238	
1736497151530.76	3.0	1.3244386	755.036888837278	1264.46886446886	
1736497151538.57	3.0	1.3185132	758.430025577294	1380.95238095238	
1736497151546.39	3.0	1.300737	768.794921648265	1526.00732600733	
1736497151554.2	3.0	1.2843282	778.617179004557	1690.10989010989	
1736497151562.01	3.0	1.2633614	791.539143114551	1868.86446886447	
1736497151569.82	3.0	1.2396598	806.672927524148	2047.61904761905	
1736497151577.64	3.0	1.2182372	820.858203968817	2214.65201465201	
1736497151585.45	3.0	1.1922566	838.745619021946	2352.38095238095	
1736497151593.26	3.0	1.177671	849.133586544969	2449.81684981685	
1736497151601.07	3.0	1.1576158	863.844463767685	2501.0989010989	
1736497151608.89	3.0	1.154881	865.890078718067	2508.42490842491	
1736497151616.7	3.0	1.1443976	873.822175090196	2472.52747252747	
1736497151624.51	3.0	1.1544252	866.231956821455	2399.2673992674	
1736497151632.32	3.0	1.154881	865.890078718067	2293.77289377289	
1736497151640.14	3.0	1.1740246	851.770908377899	2164.83516483516	
1736497151647.95	3.0	1.1831406	845.208084313901	2020.51282051282	
1736497151655.76	3.0	1.2063864	828.921811452782	1868.86446886447	
1736497151663.57	3.0	1.220972	819.019600777086	1718.68131868132	
1736497151671.39	3.0	1.2433062	804.307096674978	1576.55677655678	
1736497151679.2	3.0	1.2592592	794.117684429067	1446.88644688645	
1736497151687.01	3.0	1.2765796	783.343240014175	1331.86813186813	
1736497151694.82	3.0	1.2920768	773.947802483567	1235.89743589744	
1736497151702.64	3.0	1.3016486	768.256501793188	1155.31135531136	
1736497151710.45	3.0	1.3153226	760.269761958017	1087.91208791209	
1736497151718.26	3.0	1.3185132	758.430025577294	1034.43223443223	
1736497151726.07	3.0	1.3308198	751.416532876953	993.406593406593	
1736497151733.89	3.0	1.3285408	752.705524738119	965.567765567766	
1736497151741.7	3.0	1.3390242	746.812492261156	947.985347985348	
1736497151749.51	3.0	1.3335546	749.875558151125	937.728937728938	
1736497151757.32	3.0	1.3413032	745.543587758532	934.065934065934	
1736497151765.14	3.0	1.3340104	749.619343297474	935.531135531135	
1736497151772.95	3.0	1.33948	746.558365933049	947.252747252747	
1736497151780.76	3.0	1.3321872	750.645254660907	966.300366300366	
1736497151788.57	3.0	1.3335546	749.875558151125	991.208791208791	
1736497151796.39	3.0	1.3271734	753.481044752705	1021.97802197802	
1736497151804.2	3.0	1.3244386	755.036888837278	1057.87545787546	
1736497151812.01	3.0	1.3185132	758.430025577294	1097.4358974359	
1736497151819.82	3.0	1.3116762	762.3832772143	1142.85714285714	
1736497151827.64	3.0	1.307574	764.775072003573	1191.20879120879	
1736497151835.45	3.0	1.2966348	771.227179773364	1238.09523809524	
1736497151843.26	3.0	1.2948116	772.313130342669	1283.51648351648	
1736497151851.07	3.0	1.2820492	780.001266722057	1320.87912087912	
1736497151858.89	3.0	1.282505	779.724055656703	1352.38095238095	
1736497151866.7	3.0	1.2706542	786.996178818753	1376.55677655678	
1736497151874.51	3.0	1.2738448	785.024988915447	1393.40659340659	
1736497151882.32	3.0	1.2638172	791.253671812664	1402.9304029304	
1736497151890.14	3.0	1.268831	788.127024008714	1403.663003663	
1736497151897.95	3.0	1.2615382	792.683091166007	1394.13919413919	
1736497151905.76	3.0	1.2674636	788.977292917919	1378.02197802198	
1736497151913.57	3.0	1.264273	790.968406348945	1357.50915750916	
1736497151921.39	3.0	1.2697426	787.561195473791	1331.86813186813	
1736497151929.2	3.0	1.2701984	787.278585770538	1304.7619047619	
1736497151937.01	3.0	1.273389	785.305982696568	1276.92307692308	
1736497151944.82	3.0	1.2770354	783.063648822891	1249.08424908425	
1736497151952.64	3.0	1.277947	782.505064764032	1221.97802197802	
1736497151960.45	3.0	1.2843282	778.617179004557	1195.6043956044	
1736497151968.26	3.0	1.2820492	780.001266722057	1171.42857142857	
1736497151976.07	3.0	1.2897978	775.315324619099	1151.64835164835	
1736497151983.89	3.0	1.2852398	778.064918313298	1131.86813186813	
1736497151991.7	3.0	1.2939	772.857253265322	1115.75091575092	
1736497151999.51	3.0	1.2879746	776.41282677469	1100.3663003663	
1736497152007.32	3.0	1.2970906	770.956169137298	1087.17948717949	
1736497152015.14	3.0	1.2911652	774.494232031656	1074.72527472527	
1736497152022.95	3.0	1.2989138	769.874028592197	1065.20146520147	
1736497152030.76	3.0	1.2939	772.857253265322	1060.80586080586	
1736497152038.57	3.0	1.2989138	769.874028592197	1060.07326007326	
1736497152046.39	3.0	1.2952674	772.04135609373	1063.00366300366	
1736497152054.2	3.0	1.2966348	771.227179773364	1069.59706959707	
1736497152062.01	3.0	1.2943558	772.585095999106	1077.65567765568	
1736497152069.82	3.0	1.2920768	773.947802483567	1086.44688644689	
1736497152077.64	3.0	1.2920768	773.947802483567	1091.57509157509	
1736497152085.45	3.0	1.2875188	776.687687977838	1093.04029304029	
1736497152093.26	3.0	1.2907094	774.767736254187	1092.30769230769	
1736497152101.07	3.0	1.2838724	778.893603445327	1090.10989010989	
1736497152108.89	3.0	1.2897978	775.315324619099	1086.44688644689	
1736497152116.7	3.0	1.282505	779.724055656703	1085.71428571429	
1736497152124.51	3.0	1.2888862	775.863687577693	1093.04029304029	
1736497152132.32	3.0	1.280226	781.11208489751	1108.42490842491	
1736497152140.14	3.0	1.284784	778.340950696771	1141.39194139194	
1736497152147.95	3.0	1.2738448	785.024988915447	1203.663003663	
1736497152155.76	3.0	1.2715658	786.431972297462	1301.8315018315	
1736497152163.57	3.0	1.2547012	797.002505457076	1430.76923076923	
1736497152171.39	3.0	1.2428504	804.602066346843	1587.54578754579	
1736497152179.2	3.0	1.2218836	818.408561993958	1761.17216117216	
1736497152187.01	3.0	1.2009168	832.697152708664	1939.19413919414	
1736497152194.82	3.0	1.1785826	848.476805953185	2109.89010989011	
1736497152202.64	3.0	1.1544252	866.231956821455	2259.34065934066	
1736497152210.45	3.0	1.1371048	879.426416984609	2375.82417582418	
1736497152218.26	3.0	1.1165938	895.580828050451	2451.28205128205	
1736497152226.07	3.0	1.1106684	900.358738935942	2482.05128205128	
1736497152233.89	3.0	1.0983618	910.446812698694	2467.39926739927	
1736497152241.7	3.0	1.1051988	904.814590822936	2413.18681318681	
1736497152249.51	3.0	1.1033756	906.309691822078	2323.07692307692	
1736497152257.32	3.0	1.120696	892.302640501974	2208.05860805861	
1736497152265.14	3.0	1.127533	886.892002273991	2073.99267399267	
1736497152272.95	3.0	1.150323	869.321051565517	1931.86813186813	
1736497152280.76	3.0	1.1621738	860.456499707703	1784.61538461538	
1736497152288.57	3.0	1.1858754	843.258912361282	1641.75824175824	
1736497152296.39	3.0	1.200461	833.013317383905	1508.42490842491	
1736497152304.2	3.0	1.2205162	819.325462455967	1386.81318681319	
1736497152312.01	3.0	1.234646	809.948762641275	1281.31868131868	
1736497152319.82	3.0	1.24832	801.076647013586	1191.20879120879	
1736497152327.64	3.0	1.2610824	792.969595008224	1117.21611721612	
1736497152335.45	3.0	1.2674636	788.977292917919	1057.87545787546	
1736497152343.26	3.0	1.2793144	781.668681287415	1013.18681318681	
1736497152351.07	3.0	1.2793144	781.668681287415	980.21978021978	
1736497152358.89	3.0	1.2888862	775.863687577693	959.70695970696	
1736497152366.7	3.0	1.284784	778.340950696771	947.985347985348	
1736497152374.51	3.0	1.2929884	773.402143437636	945.787545787546	
1736497152382.32	3.0	1.2856956	777.789081645765	951.648351648351	
1736497152390.14	3.0	1.2920768	773.947802483567	963.369963369963	
1736497152397.95	3.0	1.2829608	779.447041561987	983.882783882784	
1736497152405.76	3.0	1.2866072	777.237994626487	1010.25641025641	
1736497152413.57	3.0	1.2774912	782.784257144002	1042.49084249084	
1736497152421.39	3.0	1.2774912	782.784257144002	1078.38827838828	
1736497152429.2	3.0	1.2701984	787.278585770538	1120.14652014652	
1736497152437.01	3.0	1.2660962	789.829398429598	1166.30036630037	
1736497152444.82	3.0	1.2601708	793.543224458145	1213.91941391941	
1736497152452.64	3.0	1.2519664	798.743480655711	1260.80586080586	
1736497152460.45	3.0	1.24832	801.076647013586	1304.7619047619	
1736497152468.26	3.0	1.2378366	807.861069869804	1344.32234432234	
1736497152476.07	3.0	1.2373808	808.15865253445	1378.02197802198	
1736497152483.89	3.0	1.2264416	815.366993422271	1402.9304029304	
1736497152491.7	3.0	1.2291764	813.552879798213	1417.58241758242	
1736497152499.51	3.0	1.2191488	820.244419713164	1423.44322344322	
1736497152507.32	3.0	1.2246184	816.580903896267	1421.24542124542	
1736497152515.14	3.0	1.2173256	821.472907494922	1413.18681318681	
1736497152522.95	3.0	1.2250742	816.277087542942	1400.7326007326	
1736497152530.76	3.0	1.2205162	819.325462455967	1381.68498168498	
1736497152538.57	3.0	1.227809	814.458926429111	1356.77655677656	
1736497152546.39	3.0	1.2268974	815.064079522868	1325.27472527473	
1736497152554.2	3.0	1.2332786	810.846794876681	1292.30769230769	
1736497152562.01	3.0	1.2360134	809.052717389634	1260.07326007326	
1736497152569.82	3.0	1.239204	806.969635346561	1230.03663003663	
1736497152577.64	3.0	1.2442178	803.717805676788	1204.3956043956	
1736497152585.45	3.0	1.2442178	803.717805676788	1181.68498168498	
1736497152593.26	3.0	1.250599	799.616823618122	1161.90476190476	
1736497152601.07	3.0	1.2474084	801.662069936358	1142.85714285714	
1736497152608.89	3.0	1.255157	796.713080515027	1126.73992673993	
1736497152616.7	3.0	1.2501432	799.908362497992	1113.55311355311	
1736497152624.51	3.0	1.2583476	794.692976725986	1105.49450549451	
1736497152632.32	3.0	1.2519664	798.743480655711	1099.6336996337	
1736497152640.14	3.0	1.259715	793.830350515791	1092.30769230769	
1736497152647.95	3.0	1.2537896	797.581986642735	1085.71428571429	
1736497152655.76	3.0	1.2606266	793.256306030668	1080.58608058608	
1736497152663.57	3.0	1.2556128	796.423865701274	1076.19047619048	
1736497152671.39	3.0	1.2601708	793.543224458145	1073.99267399267	
1736497152679.2	3.0	1.257436	795.269103159127	1074.72527472527	
1736497152687.01	3.0	1.2588034	794.405226423761	1076.19047619048	
1736497152694.82	3.0	1.2583476	794.692976725986	1076.92307692308	
1736497152702.64	3.0	1.2560686	796.134860787062	1074.72527472527	
1736497152710.45	3.0	1.2583476	794.692976725986	1073.26007326007	
1736497152718.26	3.0	1.2537896	797.581986642735	1072.52747252747	
1736497152726.07	3.0	1.2583476	794.692976725986	1071.79487179487	
1736497152733.89	3.0	1.2515106	799.034382928918	1073.99267399267	
1736497152741.7	3.0	1.257436	795.269103159127	1084.24908424908	
1736497152749.51	3.0	1.2487758	800.784256069024	1108.42490842491	
1736497152757.32	3.0	1.252878	798.162311094935	1156.77655677656	
1736497152765.14	3.0	1.2396598	806.672927524148	1235.16483516484	
1736497152772.95	3.0	1.2373808	808.15865253445	1343.58974358974	
1736497152780.76	3.0	1.2177814	821.165440694036	1481.31868131868	
1736497152788.57	3.0	1.2068422	828.608744374368	1641.02564102564	
1736497152796.39	3.0	1.1835964	844.882596804113	1810.98901098901	
1736497152804.2	3.0	1.1653644	858.100693654277	1980.21978021978	
1736497152812.01	3.0	1.1425744	875.216528569168	2138.46153846154	
1736497152819.82	3.0	1.1225192	890.853359122944	2273.99267399267	
1736497152827.64	3.0	1.1056546	904.441586007058	2374.35897435897	
1736497152835.45	3.0	1.0897016	917.682418746563	2433.69963369963	
1736497152843.26	3.0	1.0837762	922.699723429985	2450.54945054945	
1736497152851.07	3.0	1.0755718	929.738023998026	2424.17582417582	
1736497152858.89	3.0	1.0828646	923.476490043169	2356.77655677656	
1736497152866.7	3.0	1.0833204	923.087943326831	2255.67765567766	
1736497152874.51	3.0	1.1020082	907.434264100757	2133.33333333333	
1736497152882.32	3.0	1.109301	901.468582467698	1995.6043956044	
1736497152890.14	3.0	1.1334584	882.255581678163	1851.28205128205	
1736497152897.95	3.0	1.1448534	873.474280637154	1707.69230769231	
1736497152905.76	3.0	1.1694666	855.090688353135	1570.69597069597	
1736497152913.57	3.0	1.1817732	846.186053296859	1441.75824175824	
1736497152921.39	3.0	1.20274	831.434890333738	1328.20512820513	
1736497152929.2	3.0	1.2145908	823.322554394451	1227.83882783883	
1736497152937.01	3.0	1.2296322	813.251312059004	1140.65934065934	
1736497152944.82	3.0	1.2401156	806.376437809507	1068.13186813187	
1736497152952.64	3.0	1.2487758	800.784256069024	1010.25641025641	
1736497152960.45	3.0	1.2583476	794.692976725986	964.835164835165	
1736497152968.26	3.0	1.2601708	793.543224458145	931.135531135531	
1736497152976.07	3.0	1.268831	788.127024008714	906.959706959707	
1736497152983.89	3.0	1.2656404	790.113842762921	895.970695970696	
1736497152991.7	3.0	1.273389	785.305982696568	894.505494505494	
1736497152999.51	3.0	1.266552	789.545158824904	902.564102564103	
1736497153007.32	3.0	1.2724774	785.868574168783	921.611721611722	
1736497153015.14	3.0	1.2624498	792.110704124631	948.717948717949	
1736497153022.95	3.0	1.2660962	789.829398429598	987.545787545787	
1736497153030.76	3.0	1.2547012	797.002505457076	1032.96703296703	
1736497153038.57	3.0	1.2547012	797.002505457076	1086.44688644689	
1736497153046.39	3.0	1.243762	804.012343197493	1144.32234432234	
1736497153054.2	3.0	1.2396598	806.672927524148	1204.3956043956	
1736497153062.01	3.0	1.2305438	812.648846794401	1263.73626373626	
1736497153069.82	3.0	1.223251	817.493711429625	1317.94871794872	
1736497153077.64	3.0	1.216414	822.088532358227	1364.83516483516	
1736497153085.45	3.0	1.2077538	827.98331911686	1400.7326007326	
1736497153093.26	3.0	1.2059306	829.235115188221	1424.17582417582	
1736497153101.07	3.0	1.1977262	834.915358785672	1438.09523809524	
1736497153108.89	3.0	1.2009168	832.697152708664	1441.75824175824	
1736497153116.7	3.0	1.1931682	838.104803664731	1437.36263736264	
1736497153124.51	3.0	1.2000052	833.32972223787	1425.64102564103	
1736497153132.32	3.0	1.1940798	837.464966746779	1407.32600732601	
1736497153140.14	3.0	1.2031958	831.119922459836	1386.08058608059	
1736497153147.95	3.0	1.1990936	833.963253577536	1361.90476190476	
1736497153155.76	3.0	1.2086654	827.358837276222	1335.53113553114	
1736497153163.57	3.0	1.2063864	828.921811452782	1304.0293040293	
1736497153171.39	3.0	1.2145908	823.322554394451	1271.06227106227	
1736497153179.2	3.0	1.2155024	822.70508063168	1241.02564102564	
1736497153187.01	3.0	1.2214278	818.713967374903	1214.65201465201	
1736497153194.82	3.0	1.2237068	817.18921558661	1192.67399267399	
1736497153202.64	3.0	1.22553	815.973497180812	1172.16117216117	
1736497153210.45	3.0	1.230088	812.949967807182	1154.57875457875	
1736497153218.26	3.0	1.2282648	814.156686734001	1138.46153846154	
1736497153226.07	3.0	1.2341902	810.24788561763	1125.27472527473	
1736497153233.89	3.0	1.230088	812.949967807182	1116.48351648352	
1736497153241.7	3.0	1.2373808	808.15865253445	1109.15750915751	
1736497153249.51	3.0	1.2305438	812.648846794401	1103.2967032967	
1736497153257.32	3.0	1.2387482	807.266561517506	1095.9706959707	
1736497153265.14	3.0	1.2319112	811.746820712402	1088.64468864469	
1736497153272.95	3.0	1.2396598	806.672927524148	1082.78388278388	
1736497153280.76	3.0	1.2337344	810.547229614413	1079.85347985348	
1736497153288.57	3.0	1.2401156	806.376437809507	1081.31868131868	
1736497153296.39	3.0	1.2351018	809.649860440653	1081.31868131868	
1736497153304.2	3.0	1.2382924	807.563706278097	1082.78388278388	
1736497153312.01	3.0	1.2360134	809.052717389634	1084.24908424908	
1736497153319.82	3.0	1.236925	808.456454514219	1084.98168498169	
1736497153327.64	3.0	1.236925	808.456454514219	1083.51648351648	
1736497153335.45	3.0	1.2341902	810.24788561763	1079.85347985348	
1736497153343.26	3.0	1.2373808	808.15865253445	1082.78388278388	
1736497153351.07	3.0	1.2319112	811.746820712402	1089.37728937729	
1736497153358.89	3.0	1.2364692	808.754476051648	1104.0293040293	
1736497153366.7	3.0	1.227809	814.458926429111	1135.53113553114	
1736497153374.51	3.0	1.2305438	812.648846794401	1189.01098901099	
1736497153382.32	3.0	1.2168698	821.78060463001	1273.26007326007	
1736497153390.14	3.0	1.2136792	823.94095573196	1389.74358974359	
1736497153397.95	3.0	1.1931682	838.104803664731	1534.79853479853	
1736497153405.76	3.0	1.1826848	845.533822705762	1697.4358974359	
1736497153413.57	3.0	1.15716	864.184728127484	1870.32967032967	
1736497153421.39	3.0	1.1407512	876.615339085333	2038.82783882784	
1736497153429.2	3.0	1.1165938	895.580828050451	2195.6043956044	
1736497153437.01	3.0	1.0988176	910.069150694346	2325.27472527472	
1736497153444.82	3.0	1.0810414	925.033953371258	2419.04761904762	
1736497153452.64	3.0	1.0678232	936.484616554501	2468.13186813187	
1736497153460.45	3.0	1.0618978	941.71020977725	2472.52747252747	
1736497153468.26	3.0	1.056884	946.177631603847	2430.76923076923	
1736497153476.07	3.0	1.0646326	939.291169554643	2350.91575091575	
1736497153483.89	3.0	1.0678232	936.484616554501	2241.75824175824	
1736497153491.7	3.0	1.086511	920.377244224863	2110.62271062271	
1736497153499.51	3.0	1.095627	912.71938351282	1967.03296703297	
1736497153507.32	3.0	1.1202402	892.665697945851	1822.71062271062	
1736497153515.14	3.0	1.1316352	883.677001210284	1680.58608058608	
1736497153522.95	3.0	1.1567042	864.525260650043	1545.05494505495	
1736497153530.76	3.0	1.1676434	856.425857415029	1419.04761904762	
1736497153538.57	3.0	1.1895218	840.673958224221	1306.22710622711	
1736497153546.39	3.0	1.1995494	833.646367544346	1208.05860805861	
1736497153554.2	3.0	1.216414	822.088532358227	1126.73992673993	
1736497153562.01	3.0	1.2241626	816.884946493219	1062.27106227106	
1736497153569.82	3.0	1.2337344	810.547229614413	1012.45421245421	
1736497153577.64	3.0	1.2405714	806.080165962233	977.289377289377	
1736497153585.45	3.0	1.2433062	804.307096674978	953.846153846154	
1736497153593.26	3.0	1.2487758	800.784256069024	939.92673992674	
1736497153601.07	3.0	1.246041	802.541810421969	933.333333333333	
1736497153608.89	3.0	1.2519664	798.743480655711	938.461538461539	
1736497153616.7	3.0	1.2446736	803.423483875612	954.578754578755	
1736497153624.51	3.0	1.2492316	800.49207849049	978.021978021978	
1736497153632.32	3.0	1.2387482	807.266561517506	1009.52380952381	
1736497153640.14	3.0	1.2419388	805.192655225845	1046.88644688645	
1736497153647.95	3.0	1.2296322	813.251312059004	1090.10989010989	
1736497153655.76	3.0	1.2309996	812.347948772688	1137.72893772894	
1736497153663.57	3.0	1.2196046	819.937871667588	1186.08058608059	
1736497153671.39	3.0	1.218693	820.551197061114	1236.63003663004	
1736497153679.2	3.0	1.2086654	827.358837276222	1287.17948717949	
1736497153687.01	3.0	1.205019	829.862433704365	1331.13553113553	
1736497153694.82	3.0	1.198182	834.597748922952	1367.03296703297	
1736497153702.64	3.0	1.1927124	838.425088898212	1395.6043956044	
1736497153710.45	3.0	1.1904334	840.030194045295	1419.78021978022	
1736497153718.26	3.0	1.1840522	844.557359886667	1435.89743589744	
1736497153726.07	3.0	1.1854196	843.583149797759	1444.68864468864	
1736497153733.89	3.0	1.1781268	848.805069199682	1441.75824175824	
1736497153741.7	3.0	1.1840522	844.557359886667	1432.96703296703	
1736497153749.51	3.0	1.1781268	848.805069199682	1416.84981684982	
1736497153757.32	3.0	1.186787	842.611184652343	1396.336996337	
1736497153765.14	3.0	1.1817732	846.186053296859	1369.23076923077	
1736497153772.95	3.0	1.1922566	838.745619021946	1336.99633699634	
1736497153780.76	3.0	1.189066	840.996210471076	1301.0989010989	
1736497153788.57	3.0	1.1995494	833.646367544346	1265.20146520147	
1736497153796.39	3.0	1.1995494	833.646367544346	1230.76923076923	
1736497153804.2	3.0	1.207298	828.295913684939	1201.4652014652	
1736497153812.01	3.0	1.2086654	827.358837276222	1178.02197802198	
1736497153819.82	3.0	1.2127676	824.560286735892	1158.24175824176	
1736497153827.64	3.0	1.2155024	822.70508063168	1141.39194139194	
1736497153835.45	3.0	1.2155024	822.70508063168	1127.47252747253	
1736497153843.26	3.0	1.2200604	819.631552667393	1115.01831501832	
1736497153851.07	3.0	1.216414	822.088532358227	1104.7619047619	
1736497153858.89	3.0	1.2227952	817.79843427583	1096.7032967033	
1736497153866.7	3.0	1.2177814	821.165440694036	1089.37728937729	
1736497153874.51	3.0	1.2246184	816.580903896267	1082.78388278388	
1736497153882.32	3.0	1.2182372	820.858203968817	1077.65567765568	
1736497153890.14	3.0	1.2259858	815.670132557816	1073.26007326007	
1736497153897.95	3.0	1.2191488	820.244419713164	1073.26007326007	
1736497153905.76	3.0	1.2264416	815.366993422271	1075.45787545788	
1736497153913.57	3.0	1.2200604	819.631552667393	1079.12087912088	
1736497153921.39	3.0	1.2246184	816.580903896267	1083.51648351648	
1736497153929.2	3.0	1.2200604	819.631552667393	1087.17948717949	
1736497153937.01	3.0	1.2223394	818.103384379167	1088.64468864469	
1736497153944.82	3.0	1.2205162	819.325462455967	1090.10989010989	
1736497153952.64	3.0	1.2196046	819.937871667588	1089.37728937729	
1736497153960.45	3.0	1.220972	819.019600777086	1088.64468864469	
1736497153968.26	3.0	1.2177814	821.165440694036	1088.64468864469	
1736497153976.07	3.0	1.2214278	818.713967374903	1095.9706959707	
1736497153983.89	3.0	1.2145908	823.322554394451	1115.75091575092	
1736497153991.7	3.0	1.2182372	820.858203968817	1156.77655677656	
1736497153999.51	3.0	1.2059306	829.235115188221	1227.10622710623	
1736497154007.32	3.0	1.2045632	830.176449023181	1330.40293040293	
1736497154015.14	3.0	1.1854196	843.583149797759	1463.73626373626	
1736497154022.95	3.0	1.1763036	850.12066612735	1619.78021978022	
1736497154030.76	3.0	1.1512346	868.63268355555	1788.27838827839	
1736497154038.57	3.0	1.1371048	879.426416984609	1958.24175824176	
1736497154046.39	3.0	1.1111242	899.98939812489	2122.34432234432	
1736497154054.2	3.0	1.0947154	913.479430361535	2265.20146520147	
1736497154062.01	3.0	1.0737486	931.316697409431	2377.28937728938	
1736497154069.82	3.0	1.0605304	942.924408390368	2449.08424908425	
1736497154077.64	3.0	1.0505028	951.925116239576	2474.72527472527	
1736497154085.45	3.0	1.0445774	957.324943082245	2452.74725274725	
1736497154093.26	3.0	1.0486796	953.580102063585	2390.47619047619	
1736497154101.07	3.0	1.0509586	951.512266991297	2292.30769230769	
1736497154108.89	3.0	1.0669116	937.284775983315	2169.23076923077	
1736497154116.7	3.0	1.0755718	929.738023998026	2030.03663003663	
1736497154124.51	3.0	1.0988176	910.069150694346	1884.24908424908	
1736497154132.32	3.0	1.1102126	900.728383014208	1739.92673992674	
1736497154140.14	3.0	1.1352816	880.838727589701	1601.4652014652	
1736497154147.95	3.0	1.1462208	872.432257380079	1473.99267399267	
1736497154155.76	3.0	1.1694666	855.090688353135	1359.70695970696	
1736497154163.57	3.0	1.1781268	848.805069199682	1260.80586080586	
1736497154171.39	3.0	1.1963588	835.869640445659	1175.82417582418	
1736497154179.2	3.0	1.2036516	830.805193130637	1103.2967032967	
1736497154187.01	3.0	1.216414	822.088532358227	1044.68864468864	
1736497154194.82	3.0	1.2223394	818.103384379167	997.802197802198	
1736497154202.64	3.0	1.2282648	814.156686734001	961.904761904762	
1736497154210.45	3.0	1.2337344	810.547229614413	937.728937728938	
1736497154218.26	3.0	1.2332786	810.846794876681	922.344322344322	
1736497154226.07	3.0	1.239204	806.969635346561	916.483516483516	
1736497154233.89	3.0	1.234646	809.948762641275	920.14652014652	
1736497154241.7	3.0	1.2401156	806.376437809507	931.135531135531	
1736497154249.51	3.0	1.2314554	812.047273494436	953.846153846154	
1736497154257.32	3.0	1.2355576	809.351178771431	983.882783882784	
1736497154265.14	3.0	1.2246184	816.580903896267	1021.97802197802	
1736497154272.95	3.0	1.2268974	815.064079522868	1068.13186813187	
1736497154280.76	3.0	1.2145908	823.322554394451	1120.87912087912	
1736497154288.57	3.0	1.214135	823.63163898578	1177.28937728938	
1736497154296.39	3.0	1.2018284	832.065542801285	1232.96703296703	
1736497154304.2	3.0	1.1995494	833.646367544346	1284.24908424908	
1736497154312.01	3.0	1.1904334	840.030194045295	1330.40293040293	
1736497154319.82	3.0	1.1858754	843.258912361282	1369.23076923077	
1736497154327.64	3.0	1.1808616	846.839290904201	1397.0695970696	
1736497154335.45	3.0	1.175392	850.779995099507	1415.38461538462	
1736497154343.26	3.0	1.1749362	851.11004325171	1421.97802197802	
1736497154351.07	3.0	1.1699224	854.757546312474	1420.51282051282	
1736497154358.89	3.0	1.1744804	851.440347578384	1413.18681318681	
1736497154366.7	3.0	1.168555	855.757752095537	1398.5347985348	
1736497154374.51	3.0	1.1767594	849.791384712967	1380.21978021978	
1736497154382.32	3.0	1.1717456	853.42756994351	1358.24175824176	
1736497154390.14	3.0	1.1813174	846.512546077794	1334.79853479853	
1736497154397.95	3.0	1.1772152	849.462358284195	1306.95970695971	
1736497154405.76	3.0	1.1872428	842.287693806187	1278.38827838828	
1736497154413.57	3.0	1.1849638	843.907636672108	1247.61904761905	
1736497154421.39	3.0	1.1940798	837.464966746779	1219.04761904762	
1736497154429.2	3.0	1.1931682	838.104803664731	1192.67399267399	
1736497154437.01	3.0	1.2000052	833.32972223787	1169.23076923077	
1736497154444.82	3.0	1.2013726	832.381227938776	1146.52014652015	
1736497154452.64	3.0	1.2045632	830.176449023181	1125.27472527473	
1736497154460.45	3.0	1.2077538	827.98331911686	1106.22710622711	
1736497154468.26	3.0	1.207298	828.295913684939	1090.84249084249	
1736497154476.07	3.0	1.2127676	824.560286735892	1079.85347985348	
1736497154483.89	3.0	1.2086654	827.358837276222	1073.26007326007	
1736497154491.7	3.0	1.2150466	823.013701696709	1070.32967032967	
1736497154499.51	3.0	1.2086654	827.358837276222	1071.79487179487	
1736497154507.32	3.0	1.2150466	823.013701696709	1077.65567765568	
1736497154515.14	3.0	1.207298	828.295913684939	1085.71428571429	
1736497154522.95	3.0	1.2136792	823.94095573196	1094.50549450549	
1736497154530.76	3.0	1.2059306	829.235115188221	1099.6336996337	
1736497154538.57	3.0	1.2114002	825.4910309574	1101.0989010989	
1736497154546.39	3.0	1.2054748	829.548655849131	1100.3663003663	
1736497154554.2	3.0	1.2100328	826.423878757667	1100.3663003663	
1736497154562.01	3.0	1.2068422	828.608744374368	1101.8315018315	
1736497154569.82	3.0	1.2086654	827.358837276222	1100.3663003663	
1736497154577.64	3.0	1.2082096	827.670960402897	1098.9010989011	
1736497154585.45	3.0	1.2068422	828.608744374368	1095.9706959707	
1736497154593.26	3.0	1.2091212	827.046949470409	1093.04029304029	
1736497154601.07	3.0	1.2054748	829.548655849131	1093.04029304029	
1736497154608.89	3.0	1.2100328	826.423878757667	1092.30769230769	
1736497154616.7	3.0	1.2036516	830.805193130637	1093.77289377289	
1736497154624.51	3.0	1.2100328	826.423878757667	1098.9010989011	
1736497154632.32	3.0	1.2018284	832.065542801285	1114.28571428571	
1736497154640.14	3.0	1.207298	828.295913684939	1150.18315018315	
1736497154647.95	3.0	1.1954472	836.507041047066	1217.58241758242	
1736497154655.76	3.0	1.1945356	837.145414502506	1318.68131868132	
1736497154663.57	3.0	1.1767594	849.791384712967	1452.01465201465	
1736497154671.39	3.0	1.166276	857.429973694049	1609.52380952381	
1736497154679.2	3.0	1.143486	874.518796032483	1781.68498168498	
1736497154687.01	3.0	1.1261656	887.968874204646	1959.70695970696	
1736497154694.82	3.0	1.1029198	906.684239416139	2133.33333333333	
1736497154702.64	3.0	1.0814972	924.6440952413	2286.44688644689	
1736497154710.45	3.0	1.0632652	940.499134176497	2408.05860805861	
1736497154718.26	3.0	1.0450332	956.907397774539	2488.64468864469	
1736497154726.07	3.0	1.0368288	964.479381745569	2522.34432234432	
1736497154733.89	3.0	1.0268012	973.898355397325	2507.69230769231	
1736497154741.7	3.0	1.0322708	968.73804819433	2452.74725274725	
1736497154749.51	3.0	1.031815	969.165984212286	2360.43956043956	
1736497154757.32	3.0	1.0491354	953.165816347442	2240.29304029304	
1736497154765.14	3.0	1.0559724	946.994447960951	2103.2967032967	
1736497154772.95	3.0	1.0805856	925.424140392025	1956.04395604396	
1736497154780.76	3.0	1.0915248	916.149591837034	1804.3956043956	
1736497154788.57	3.0	1.1165938	895.580828050451	1654.21245421245	
1736497154796.39	3.0	1.1307236	884.389429919036	1512.82051282051	
1736497154804.2	3.0	1.1535136	866.916523567646	1386.08058608059	
1736497154812.01	3.0	1.1671876	856.760301428836	1277.65567765568	
1736497154819.82	3.0	1.1835964	844.882596804113	1187.54578754579	
1736497154827.64	3.0	1.1949914	836.82610602888	1113.55311355311	
1736497154835.45	3.0	1.2036516	830.805193130637	1055.67765567766	
1736497154843.26	3.0	1.2132234	824.250504894647	1008.05860805861	
1736497154851.07	3.0	1.2155024	822.70508063168	972.161172161172	
1736497154858.89	3.0	1.2241626	816.884946493219	945.787545787546	
1736497154866.7	3.0	1.2218836	818.408561993958	926.007326007326	
1736497154874.51	3.0	1.2305438	812.648846794401	915.750915750916	
1736497154882.32	3.0	1.2246184	816.580903896267	917.216117216117	
1736497154890.14	3.0	1.2319112	811.746820712402	928.205128205128	
1736497154897.95	3.0	1.2227952	817.79843427583	948.717948717949	
1736497154905.76	3.0	1.227809	814.458926429111	977.289377289377	
1736497154913.57	3.0	1.2177814	821.165440694036	1013.18681318681	
1736497154921.39	3.0	1.2191488	820.244419713164	1054.21245421245	
1736497154929.2	3.0	1.209577	826.735296719432	1101.0989010989	
1736497154937.01	3.0	1.207298	828.295913684939	1154.57875457875	
1736497154944.82	3.0	1.1986378	834.280380612058	1209.52380952381	
1736497154952.64	3.0	1.1927124	838.425088898212	1260.80586080586	
1736497154960.45	3.0	1.186787	842.611184652343	1309.15750915751	
1736497154968.26	3.0	1.1785826	848.476805953185	1355.31135531136	
1736497154976.07	3.0	1.1758478	850.450202823869	1394.87179487179	
1736497154983.89	3.0	1.1658202	857.765202558679	1427.10622710623	
1736497154991.7	3.0	1.1667318	857.095006753052	1447.61904761905	
1736497154999.51	3.0	1.1576158	863.844463767685	1454.21245421245	
1736497155007.32	3.0	1.1635412	859.445286509837	1451.28205128205	
1736497155015.14	3.0	1.1557926	865.207131452477	1438.09523809524	
1736497155022.95	3.0	1.1644528	858.772463770107	1416.84981684982	
1736497155030.76	3.0	1.1598948	862.147153345286	1391.20879120879	
1736497155038.57	3.0	1.1694666	855.090688353135	1363.36996336996	
1736497155046.39	3.0	1.1671876	856.760301428836	1333.33333333333	
1736497155054.2	3.0	1.1763036	850.12066612735	1301.8315018315	
1736497155062.01	3.0	1.1767594	849.791384712967	1272.52747252747	
1736497155069.82	3.0	1.1826848	845.533822705762	1242.49084249084	
1736497155077.64	3.0	1.1854196	843.583149797759	1216.11721611722	
1736497155085.45	3.0	1.1881544	841.641456699567	1191.20879120879	
1736497155093.26	3.0	1.1927124	838.425088898212	1169.23076923077	
1736497155101.07	3.0	1.1918008	839.066394316902	1148.71794871795	
1736497155108.89	3.0	1.1986378	834.280380612058	1132.60073260073	
1736497155116.7	3.0	1.1949914	836.82610602888	1118.68131868132	
1736497155124.51	3.0	1.20274	831.434890333738	1107.69230769231	
1736497155132.32	3.0	1.1972704	835.233210476097	1098.9010989011	
1736497155140.14	3.0	1.205019	829.862433704365	1092.30769230769	
1736497155147.95	3.0	1.1986378	834.280380612058	1087.91208791209	
1736497155155.76	3.0	1.2063864	828.921811452782	1085.71428571429	
1736497155163.57	3.0	1.2000052	833.32972223787	1082.05128205128	
1736497155171.39	3.0	1.2063864	828.921811452782	1078.38827838828	
1736497155179.2	3.0	1.2018284	832.065542801285	1075.45787545788	
1736497155187.01	3.0	1.2059306	829.235115188221	1073.26007326007	
1736497155194.82	3.0	1.2036516	830.805193130637	1068.13186813187	
1736497155202.64	3.0	1.205019	829.862433704365	1064.46886446886	
1736497155210.45	3.0	1.2059306	829.235115188221	1064.46886446886	
1736497155218.26	3.0	1.2036516	830.805193130637	1067.39926739927	
1736497155226.07	3.0	1.2059306	829.235115188221	1068.86446886447	
1736497155233.89	3.0	1.2009168	832.697152708664	1070.32967032967	
1736497155241.7	3.0	1.2059306	829.235115188221	1076.19047619048	
1736497155249.51	3.0	1.198182	834.597748922952	1093.04029304029	
1736497155257.32	3.0	1.20274	831.434890333738	1132.60073260073	
1736497155265.14	3.0	1.1908892	839.708681546528	1200.7326007326	
1736497155272.95	3.0	1.1904334	840.030194045295	1301.8315018315	
1736497155280.76	3.0	1.1712898	853.759675871847	1433.69963369963	
1736497155288.57	3.0	1.1626296	860.119164349505	1586.81318681319	
1736497155296.39	3.0	1.1384722	878.370152560598	1754.57875457875	
1736497155304.2	3.0	1.1234308	890.130482447161	1926.73992673993	
1736497155312.01	3.0	1.0988176	910.069150694346	2087.91208791209	
1736497155319.82	3.0	1.0810414	925.033953371258	2226.37362637363	
1736497155327.64	3.0	1.0623536	941.306171504478	2334.06593406593	
1736497155335.45	3.0	1.047768	954.409754831222	2403.663003663	
1736497155343.26	3.0	1.0400194	961.520525482505	2427.83882783883	
1736497155351.07	3.0	1.0322708	968.73804819433	2408.79120879121	
1736497155358.89	3.0	1.0368288	964.479381745569	2349.45054945055	
1736497155366.7	3.0	1.0377404	963.632137671425	2259.34065934066	
1736497155374.51	3.0	1.0541492	948.632318840635	2145.05494505494	
1736497155382.32	3.0	1.061442	942.114595050884	2013.18681318681	
1736497155390.14	3.0	1.084232	922.311829940455	1874.72527472527	
1736497155397.95	3.0	1.0947154	913.479430361535	1734.79853479854	
1736497155405.76	3.0	1.1193286	893.392699873835	1599.2673992674	
1736497155413.57	3.0	1.1302678	884.746075222173	1471.79487179487	
1736497155421.39	3.0	1.152602	867.602173169923	1358.24175824176	
1736497155429.2	3.0	1.1621738	860.456499707703	1260.07326007326	
1736497155437.01	3.0	1.1790384	848.148796510784	1178.75457875458	
1736497155444.82	3.0	1.1876986	841.964451250511	1110.62271062271	
1736497155452.64	3.0	1.1972704	835.233210476097	1054.94505494505	
1736497155460.45	3.0	1.205019	829.862433704365	1008.05860805861	
1736497155468.26	3.0	1.2091212	827.046949470409	969.96336996337	
1736497155476.07	3.0	1.216414	822.088532358227	943.589743589744	
1736497155483.89	3.0	1.2150466	823.013701696709	926.739926739927	
1736497155491.7	3.0	1.2223394	818.103384379167	916.483516483516	
1736497155499.51	3.0	1.2173256	821.472907494922	909.89010989011	
1736497155507.32	3.0	1.2241626	816.884946493219	912.087912087912	
1736497155515.14	3.0	1.2168698	821.78060463001	923.076923076923	
1736497155522.95	3.0	1.2223394	818.103384379167	944.322344322344	
1736497155530.76	3.0	1.2127676	824.560286735892	974.358974358974	
1736497155538.57	3.0	1.2159582	822.396690938882	1013.18681318681	
1736497155546.39	3.0	1.205019	829.862433704365	1060.07326007326	
1736497155554.2	3.0	1.2045632	830.176449023181	1111.35531135531	
1736497155562.01	3.0	1.1945356	837.145414502506	1165.56776556777	
1736497155569.82	3.0	1.1904334	840.030194045295	1220.51282051282	
1736497155577.64	3.0	1.1826848	845.533822705762	1273.26007326007	
1736497155585.45	3.0	1.175392	850.779995099507	1317.94871794872	
1736497155593.26	3.0	1.1712898	853.759675871847	1353.84615384615	
1736497155601.07	3.0	1.1630854	859.782093387124	1381.68498168498	
1736497155608.89	3.0	1.1635412	859.445286509837	1398.5347985348	
1736497155616.7	3.0	1.1553368	865.548470368121	1403.663003663	
1736497155624.51	3.0	1.1603506	861.80849133012	1399.2673992674	
1736497155632.32	3.0	1.1535136	866.916523567646	1389.01098901099	
1736497155640.14	3.0	1.161718	860.794099772923	1375.09157509157	
1736497155647.95	3.0	1.1557926	865.207131452477	1356.04395604396	
1736497155655.76	3.0	1.1653644	858.100693654277	1330.40293040293	
1736497155663.57	3.0	1.161718	860.794099772923	1302.5641025641	
1736497155671.39	3.0	1.1712898	853.759675871847	1271.79487179487	
1736497155679.2	3.0	1.1699224	854.757546312474	1243.95604395604	
1736497155687.01	3.0	1.177671	849.133586544969	1220.51282051282	
1736497155694.82	3.0	1.1781268	848.805069199682	1196.336996337	
1736497155702.64	3.0	1.1826848	845.533822705762	1170.69597069597	
1736497155710.45	3.0	1.1858754	843.258912361282	1147.98534798535	
1736497155718.26	3.0	1.186787	842.611184652343	1126.00732600733	
1736497155726.07	3.0	1.1922566	838.745619021946	1106.22710622711	
1736497155733.89	3.0	1.1899776	840.351952843482	1090.10989010989	
1736497155741.7	3.0	1.1968146	835.551304270519	1079.85347985348	
1736497155749.51	3.0	1.1918008	839.066394316902	1071.79487179487	
1736497155757.32	3.0	1.1990936	833.963253577536	1066.66666666667	
1736497155765.14	3.0	1.1927124	838.425088898212	1062.27106227106	
1736497155772.95	3.0	1.200461	833.013317383905	1058.60805860806	
1736497155780.76	3.0	1.193624	837.784763040957	1057.87545787546	
1736497155788.57	3.0	1.200461	833.013317383905	1059.34065934066	
1736497155796.39	3.0	1.1940798	837.464966746779	1063.00366300366	
1736497155804.2	3.0	1.1990936	833.963253577536	1065.93406593407	
1736497155812.01	3.0	1.1945356	837.145414502506	1068.86446886447	
1736497155819.82	3.0	1.1968146	835.551304270519	1071.06227106227	
1736497155827.64	3.0	1.1954472	836.507041047066	1074.72527472527	
1736497155835.45	3.0	1.1949914	836.82610602888	1079.85347985348	
1736497155843.26	3.0	1.1954472	836.507041047066	1083.51648351648	
1736497155851.07	3.0	1.1918008	839.066394316902	1088.64468864469	
1736497155858.89	3.0	1.1949914	836.82610602888	1093.77289377289	
1736497155866.7	3.0	1.1886102	841.318709868046	1095.9706959707	
1736497155874.51	3.0	1.1940798	837.464966746779	1098.1684981685	
1736497155882.32	3.0	1.186787	842.611184652343	1098.9010989011	
1736497155890.14	3.0	1.193624	837.784763040957	1101.0989010989	
1736497155897.95	3.0	1.1858754	843.258912361282	1104.0293040293	
1736497155905.76	3.0	1.1922566	838.745619021946	1114.28571428571	
1736497155913.57	3.0	1.184508	844.232373272278	1141.39194139194	
1736497155921.39	3.0	1.1872428	842.287693806187	1195.6043956044	
1736497155929.2	3.0	1.1749362	851.11004325171	1284.98168498168	
1736497155937.01	3.0	1.1690108	855.424090179492	1407.32600732601	
1736497155944.82	3.0	1.1521462	867.945404845322	1558.24175824176	
1736497155952.64	3.0	1.1357374	880.485224841588	1726.73992673993	
1736497155960.45	3.0	1.1156822	896.312587939469	1904.7619047619	
1736497155968.26	3.0	1.0924364	915.385097018005	2077.65567765568	
1736497155976.07	3.0	1.0737486	931.316697409431	2232.96703296703	
1736497155983.89	3.0	1.050047	952.338323903597	2361.17216117216	
1736497155991.7	3.0	1.0381962	963.209073583587	2450.54945054945	
1736497155999.51	3.0	1.0199642	980.426567912874	2496.7032967033	
1736497156007.32	3.0	1.0195084	980.864895276979	2495.9706959707	
1736497156015.14	3.0	1.011304	988.822352131506	2449.08424908425	
1736497156022.95	3.0	1.0231548	977.36921138424	2366.30036630037	
1736497156030.76	3.0	1.0254338	975.197033684671	2252.74725274725	
1736497156038.57	3.0	1.045489	956.49021653982	2120.14652014652	
1736497156046.39	3.0	1.0559724	946.994447960951	1973.62637362637	
1736497156054.2	3.0	1.0792182	926.596678966311	1821.97802197802	
1736497156062.01	3.0	1.0947154	913.479430361535	1670.32967032967	
1736497156069.82	3.0	1.1165938	895.580828050451	1527.47252747253	
1736497156077.64	3.0	1.1334584	882.255581678163	1397.8021978022	
1736497156085.45	3.0	1.150323	869.321051565517	1283.51648351648	
1736497156093.26	3.0	1.166276	857.429973694049	1186.08058608059	
1736497156101.07	3.0	1.1763036	850.12066612735	1104.7619047619	
1736497156108.89	3.0	1.1899776	840.351952843482	1038.82783882784	
1736497156116.7	3.0	1.193624	837.784763040957	981.684981684982	
1736497156124.51	3.0	1.2063864	828.921811452782	934.065934065934	
1736497156132.32	3.0	1.2054748	829.548655849131	896.703296703297	
1736497156140.14	3.0	1.2168698	821.78060463001	871.062271062271	
1736497156147.95	3.0	1.2127676	824.560286735892	858.608058608059	
1736497156155.76	3.0	1.2214278	818.713967374903	857.142857142857	
1736497156163.57	3.0	1.2150466	823.013701696709	865.201465201465	
1736497156171.39	3.0	1.2205162	819.325462455967	882.051282051282	
1736497156179.2	3.0	1.2132234	824.250504894647	907.692307692308	
1736497156187.01	3.0	1.214135	823.63163898578	941.391941391941	
1736497156194.82	3.0	1.207298	828.295913684939	981.684981684982	
1736497156202.64	3.0	1.2041074	830.490702075247	1026.37362637363	
1736497156210.45	3.0	1.1986378	834.280380612058	1075.45787545788	
1736497156218.26	3.0	1.1908892	839.708681546528	1129.67032967033	
1736497156226.07	3.0	1.1863312	842.934924075166	1185.34798534799	
1736497156233.89	3.0	1.175392	850.779995099507	1239.56043956044	
1736497156241.7	3.0	1.1740246	851.770908377899	1290.84249084249	
1736497156249.51	3.0	1.161718	860.794099772923	1335.53113553114	
1736497156257.32	3.0	1.1621738	860.456499707703	1371.42857142857	
1736497156265.14	3.0	1.150323	869.321051565517	1397.8021978022	
1736497156272.95	3.0	1.1539694	866.574104997931	1413.91941391941	
1736497156280.76	3.0	1.1443976	873.822175090196	1419.78021978022	
1736497156288.57	3.0	1.1507788	868.976731236272	1413.91941391941	
1736497156296.39	3.0	1.1448534	873.474280637154	1400.0	
1736497156304.2	3.0	1.1516904	868.288908199634	1378.02197802198	
1736497156312.01	3.0	1.150323	869.321051565517	1353.11355311355	
1736497156319.82	3.0	1.1562484	864.866061652496	1326.00732600733	
1736497156327.64	3.0	1.1580716	863.504467254011	1296.7032967033	
1736497156335.45	3.0	1.161718	860.794099772923	1266.66666666667	
1736497156343.26	3.0	1.1667318	857.095006753052	1237.36263736264	
1736497156351.07	3.0	1.1671876	856.760301428836	1208.79120879121	
1736497156358.89	3.0	1.1744804	851.440347578384	1183.88278388278	
1736497156366.7	3.0	1.1722014	853.095722287996	1162.63736263736	
1736497156374.51	3.0	1.1804058	847.166288068053	1144.32234432234	
1736497156382.32	3.0	1.1758478	850.450202823869	1128.20512820513	
1736497156390.14	3.0	1.184508	844.232373272278	1117.94871794872	
1736497156397.95	3.0	1.1785826	848.476805953185	1110.62271062271	
