,id95AE_PPG_A13_CAL
1736497170.01251,2057.8337516087795
1736497170.0144699,2098.994912003974
1736497170.01642,2138.8629839214354
1736497170.0183702,2177.4958433904408
1736497170.0203202,2214.696436152214
1736497170.02228,2250.4553792689767
1736497170.02423,2284.223544613716
1736497170.02618,2315.9503483858916
1736497170.0281398,2345.5163672109957
1736497170.03009,2372.367503483273
1736497170.03204,2396.4050503443045
1736497170.034,2417.6741859856456
1736497170.03595,2436.0305936130417
1736497170.0379,2451.6572960337235
1736497170.03986,2464.6763544512587
1736497170.04181,2474.9273452830857
1736497170.04376,2482.3971956822743
1736497170.0457199,2487.014188192335
1736497170.04767,2488.652490295646
1736497170.0496202,2487.359197513776
1736497170.0515702,2483.2157826709713
1736497170.05353,2476.2630821290795
1736497170.05548,2466.650429334802
1736497170.05743,2454.397500263701
1736497170.0593898,2439.4494025390763
1736497170.06134,2421.978861563879
1736497170.06329,2401.957309508023
1736497170.06525,2379.4132066834113
1736497170.0672,2354.7960768147905
1736497170.06915,2328.224350539527
1736497170.07111,2299.771675331845
1736497170.07306,2269.9292632682605
1736497170.07501,2238.7401781400845
1736497170.0769699,2206.2235283713644
1736497170.07892,2172.8814016286824
1736497170.0808702,2138.643096101281
1736497170.0828202,2103.554273942619
1736497170.08478,2067.465095607269
1736497170.08673,2030.7779745412824
1736497170.08868,1993.4290753178223
1736497170.0906398,1955.3895052562275
1736497170.09259,1917.1974090807857
1736497170.09454,1878.8316223271754
1736497170.0965,1840.1975843132436
1736497170.09845,1801.74721975335
1736497170.1004,1763.3535545177695
1736497170.10236,1724.8896245863411
1736497170.10431,1686.8598462530035
1736497170.10626,1649.2058526358676
1736497170.1082199,1611.8820054828768
1736497170.11017,1575.3949558503984
1736497170.1121202,1539.623015633117
1736497170.1140702,1504.6030276869783
1736497170.11603,1470.188246209025
1736497170.11798,1436.7501640863486
1736497170.11993,1404.152025288403
1736497170.1218898,1372.2798370405449
1736497170.12384,1341.4908200813438
1736497170.12579,1311.6723845242868
1736497170.12775,1282.6992489733893
1736497170.1297,1254.867421248676
1736497170.13165,1228.0366166332358
1736497170.13361,1202.0836518136643
1736497170.13556,1177.2817199159147
1736497170.13751,1153.5043880702992
1736497170.1394699,1130.6490266330334
1736497170.14142,1108.9490187371173
1736497170.1433702,1088.2494300388269
1736497170.1453202,1068.4921226611887
1736497170.14728,1049.518274544058
1736497170.14923,1031.4586950952832
1736497170.15118,1014.2245433621232
1736497170.1531398,997.7879138647605
1736497170.15509,982.3637429599655
1736497170.15704,967.921217462875
1736497170.159,954.4076216240351
1736497170.16095,941.9483533191359
1736497170.1629,930.4637352804996
1736497170.16486,919.8924077883175
1736497170.16681,910.3322585231864
1736497170.16876,901.7165479026069
1736497170.1707199,893.9988390949025
1736497170.17267,887.2418679556987
1736497170.1746202,881.3423287820011
1736497170.1765702,876.2082927619144
1736497170.17853,871.7242191465444
1736497170.18048,867.8504720287203
1736497170.18243,864.5992074561029
1736497170.1843898,862.0756350270242
1736497170.18634,860.422451005194
1736497170.18829,859.7324211219849
1736497170.19025,859.9914855298111
1736497170.1922,861.0970016675548
1736497170.19415,862.9468624911617
1736497170.19611,865.4596690668857
1736497170.19806,868.5779437000256
1736497170.20001,872.3235480393487
1736497170.2019699,876.7314307952877
1736497170.20392,881.7680325255119
1736497170.2058702,887.4530204539649
1736497170.2078202,893.7757330335785
1736497170.20978,900.7638311276773
1736497170.21173,908.3365598526306
1736497170.21368,916.4969699068985
1736497170.2156398,925.2470108962062
1736497170.21759,934.4571539469398
1736497170.21954,944.1251963104861
1736497170.2215,954.273135751155
1736497170.22345,964.7765272383041
1736497170.2254,975.6619536993006
1736497170.22736,986.9658141229856
1736497170.22931,998.5591756819223
1736497170.23126,1010.4913544131606
1736497170.2332199,1022.8172204033924
1736497170.23517,1035.4097040742024
1736497170.2371202,1048.3673874941335
1736497170.2390702,1061.7502112577176
1736497170.24103,1075.694203822673
1736497170.24298,1090.1124596047005
1736497170.24493,1104.984554416149
1736497170.2468898,1120.20485378184
1736497170.24884,1135.4390221369972
1736497170.25079,1150.5831352503178
1736497170.25275,1165.6349551439077
1736497170.2547,1180.4297480580094
1736497170.25665,1195.0296471567988
1736497170.25861,1209.496496545674
1736497170.26056,1223.6931868620738
1736497170.26251,1237.7194640595003
1736497170.2644699,1251.6701433092474
1736497170.26642,1265.4269217937465
1736497170.2683702,1279.024279788049
1736497170.2703202,1292.383434463068
1736497170.27228,1305.4944057528942
1736497170.27423,1318.1502513687083
1736497170.27618,1330.3450574338062
1736497170.2781398,1342.0661197311854
1736497170.28009,1353.1278579490352
1736497170.28204,1363.5216221599865
1736497170.284,1373.2768681395894
1736497170.28595,1382.3085323686955
1736497170.2879,1390.6797365122607
1736497170.28986,1398.4381255974702
1736497170.29181,1405.4770966016067
1736497170.29376,1411.7864047958253
1736497170.2957199,1417.3397353027344
1736497170.29767,1422.0349927202749
1736497170.2996202,1425.9220523426043
1736497170.3015702,1429.0636227684006
1736497170.30353,1431.5353976008378
1736497170.30548,1433.3709707362357
1736497170.30743,1434.5643835865797
1736497170.3093898,1435.0445198468274
1736497170.31134,1434.7336711294263
1736497170.31329,1433.5744572579813
1736497170.31525,1431.6244969988174
1736497170.3172,1429.0595959448
1736497170.31915,1426.0291014197442
1736497170.32111,1422.6613763616813
1736497170.32306,1419.0045355876573
1736497170.32501,1414.968296277485
1736497170.3269699,1410.4535794967003
1736497170.32892,1405.4399969377469
1736497170.3308702,1399.9633210640015
1736497170.3328202,1394.1641627801207
1736497170.33478,1388.152388345635
1736497170.33673,1382.1190789350833
1736497170.33868,1376.042066830366
1736497170.3406398,1369.815776596094
1736497170.34259,1363.4256479087087
1736497170.34454,1356.7749305955315
1736497170.3465,1349.8562624470983
1736497170.34845,1342.831014849303
1736497170.3504,1335.7582906234877
1736497170.35236,1328.6866420149524
1736497170.35431,1321.669384885498
1736497170.35626,1314.5832068349703
1736497170.3582199,1307.3030502089296
1736497170.36017,1299.8194110518289
1736497170.3621202,1292.0914940833256
1736497170.3640702,1284.1687594100135
1736497170.36603,1276.0580229420927
1736497170.36798,1267.8882179799762
1736497170.36993,1259.6589643631999
1736497170.3718898,1251.3632728781179
1736497170.37384,1243.1173336769261
1736497170.37579,1234.9154262048505
1736497170.37775,1226.741199376168
1736497170.3797,1218.695949815925
1736497170.38165,1210.758289882841
1736497170.38361,1202.9084271598583
1736497170.38556,1195.2511303587949
1736497170.38751,1187.7733802458936
1736497170.3894699,1180.4667788269333
1736497170.39142,1173.4305303456033
1736497170.3933702,1166.637586735691
1736497170.3953202,1160.090120752011
1736497170.39728,1153.756639522477
1736497170.39923,1147.7026746250601
1736497170.40118,1141.9227610322105
1736497170.4031398,1136.4332953711669
1736497170.40509,1131.331819646864
1736497170.40704,1126.6308265727137
1736497170.409,1122.3032402383053
1736497170.41095,1118.356322841461
1736497170.4129,1114.7312368008497
1736497170.41486,1111.3753390990585
1736497170.41681,1108.2880837411565
1736497170.41876,1105.4179147625143
1736497170.4207199,1102.7180771364174
1736497170.42267,1100.1815310507707
1736497170.4246202,1097.7585706899458
1736497170.4265702,1095.4131494715432
1736497170.42853,1093.0967964130339
1736497170.43048,1090.7996607177988
1736497170.43243,1088.5237799592508
1736497170.4343898,1086.302785964076
1736497170.43634,1084.203796574283
1736497170.43829,1082.2554115834073
1736497170.44025,1080.4194635285517
1736497170.4422,1078.6397509598876
1736497170.44415,1076.8318595486403
1736497170.44611,1074.9199171641028
1736497170.44806,1072.968361046325
1736497170.45001,1071.0853123490806
1736497170.4519699,1069.381803787807
1736497170.45392,1067.9824943604465
1736497170.4558702,1066.8442597679216
1736497170.4578202,1065.8398873257152
1736497170.45978,1064.8348524718933
1736497170.46173,1063.7214663639204
1736497170.46368,1062.5221993201278
1736497170.4656398,1061.354761446778
1736497170.46759,1060.3561617558682
1736497170.46954,1059.635120731032
1736497170.4715,1059.1779678959285
1736497170.47345,1058.893391717661
1736497170.4754,1058.6815578693302
1736497170.47736,1058.4515161040497
1736497170.47931,1058.2041312998942
1736497170.48126,1057.9949966024335
1736497170.4832199,1057.8815435751399
1736497170.48517,1057.923437176914
1736497170.4871202,1058.1857848909294
1736497170.4890702,1058.739497165348
1736497170.49103,1059.661274185487
1736497170.49298,1061.0034886873127
1736497170.49493,1062.7129378827583
1736497170.4968898,1064.6645740774106
1736497170.49884,1066.702068525657
1736497170.50079,1068.7071208640798
1736497170.50275,1070.6771631124454
1736497170.5047,1072.6560436720074
1736497170.50665,1074.7182402325486
1736497170.50861,1076.9311527069733
1736497170.51056,1079.2208965006066
1736497170.51251,1081.4769191683165
1736497170.5144699,1083.586465692099
1736497170.51642,1085.4151747604476
1736497170.5183702,1086.9806087485197
1736497170.5203202,1088.3677704675038
1736497170.52228,1089.67007047518
1736497170.52423,1090.9534017139515
1736497170.52618,1092.2031254152876
1736497170.5281398,1093.3369795963297
1736497170.53009,1094.254727055884
1736497170.53204,1094.8774200951736
1736497170.534,1095.1681449689
1736497170.53595,1095.117560129054
1736497170.5379,1094.722098281326
1736497170.53986,1093.9735820615795
1736497170.54181,1092.9049835364408
1736497170.54376,1091.5575074643261
1736497170.5457199,1089.9671694892686
1736497170.54767,1088.197111077755
1736497170.5496202,1086.3185435185583
1736497170.5515702,1084.4318026280719
1736497170.55353,1082.6283092620831
1736497170.55548,1081.0171337529762
1736497170.55743,1079.56398158022
1736497170.5593898,1078.1601622704575
1736497170.56134,1076.7160343795326
1736497170.56329,1075.1349628322412
1736497170.56525,1073.4769006173324
1736497170.5672,1071.9322863410378
1736497170.56915,1070.6679252126974
1736497170.57111,1069.8518988496376
1736497170.57306,1069.6132243252707
1736497170.57501,1070.033182627356
1736497170.5769699,1071.205807422891
1736497170.57892,1073.2031644822223
1736497170.5808702,1076.07953994028
1736497170.5828202,1079.862037426001
1736497170.58478,1084.6044017954944
1736497170.58673,1090.2956955948396
1736497170.58868,1097.100253231928
1736497170.5906398,1105.2763875059275
1736497170.59259,1114.9598360484558
1736497170.59454,1126.3905726609726
1736497170.5965,1139.7243440229681
1736497170.59845,1154.8311525647953
1736497170.6004,1171.7744742636814
1736497170.60236,1190.6589355121125
1736497170.60431,1211.3171948767385
1736497170.60626,1233.8810824438146
1736497170.6082199,1258.518764710606
1736497170.61017,1285.0195584131466
1736497170.6121202,1313.4747078176263
1736497170.6140702,1343.803656824965
1736497170.61603,1376.1008869991692
1736497170.61798,1409.9686369301942
1736497170.61993,1445.4774500536732
1736497170.6218898,1482.7235523191214
1736497170.62384,1521.2463897786977
1736497170.62579,1561.124826992156
1736497170.62775,1602.4756635991
1736497170.6297,1644.786660979323
1736497170.63165,1688.161626887003
1736497170.63361,1732.725656311632
1736497170.63556,1777.8522552591564
1736497170.63751,1823.5530461702826
1736497170.6394699,1869.8450372970797
1736497170.64142,1916.047074037396
1736497170.6433702,1962.1278099171157
1736497170.6453202,2007.776542245208
1736497170.64728,2052.9217885229564
1736497170.64923,2096.8176403034745
1736497170.65118,2139.4656352054512
1736497170.6531398,2180.888263026494
1736497170.65509,2220.4968669343275
1736497170.65704,2258.3174886445768
1736497170.659,2294.413899627452
1736497170.66095,2328.348002214346
1736497170.6629,2360.2276690705835
1736497170.66486,2390.1168169858015
1736497170.66681,2417.552839892742
1736497170.66876,2442.489043130073
1736497170.6707199,2464.823904924933
1736497170.67267,2484.139315896696
1736497170.6746202,2500.4980305810695
1736497170.6765702,2513.9294747070617
1736497170.67853,2524.5164994278784
1736497170.68048,2532.1798043280232
1736497170.68243,2536.8983688017174
1736497170.6843898,2538.520143257667
1736497170.68634,2536.874508423843
1736497170.68829,2531.8428164671673
1736497170.69025,2523.4621487311247
1736497170.6922,2512.0508983699997
1736497170.69415,2497.811776982066
1736497170.69611,2480.8823574467287
1736497170.69806,2461.5939021449617
1736497170.70001,2439.9760110889656
1736497170.7019699,2416.0125588427723
1736497170.70392,2390.056033831698
1736497170.7058702,2362.152504790297
1736497170.7078202,2332.5060447139103
1736497170.70978,2301.1512474710617
1736497170.71173,2268.5965326098813
1736497170.71368,2234.847523776471
1736497170.7156398,2199.861381630147
1736497170.71759,2164.116919830765
1736497170.71954,2127.5792422919644
1736497170.7215,2090.1190865477797
1736497170.72345,2052.1310925432113
1736497170.7254,2013.450333830831
1736497170.72736,1973.9025146194303
1736497170.72931,1934.0326606487652
1736497170.73126,1893.8539341061467
1736497170.7332199,1853.3793828897115
1736497170.73517,1813.2202607717147
1736497170.7371202,1773.2774031319243
1736497170.7390702,1733.6024277545719
1736497170.74103,1694.034579299861
1736497170.74298,1655.0163496958407
1736497170.74493,1616.480883499175
1736497170.7468898,1578.4271537579814
1736497170.74884,1541.4188732891482
1736497170.75079,1505.450546883021
1736497170.75275,1470.3933367808693
1736497170.7547,1436.5591326444323
1736497170.75665,1403.7311892299874
1736497170.75861,1371.7134344880496
1736497170.76056,1340.8490472089939
1736497170.76251,1311.0215295945122
1736497170.7644699,1282.1397580280782
1736497170.76642,1254.5405867301
1736497170.7683702,1228.1033035435983
1736497170.7703202,1202.8508783242237
1736497170.77228,1178.678746023799
1736497170.77423,1155.8420984494005
1736497170.77618,1134.203769894522
1736497170.7781398,1113.63215762124
1736497170.78009,1094.297854805835
1736497170.78204,1076.065033529121
1736497170.784,1058.7779579951246
1736497170.78595,1042.5163407257216
1736497170.7879,1027.0986943233358
1736497170.78986,1012.3663979414964
1736497170.79181,998.4754886849859
1736497170.79376,985.4141135414922
1736497170.7957199,973.1899860708887
1736497170.79767,961.9830343005561
1736497170.7996202,951.6824364738109
1736497170.8015702,942.1753754443235
1736497170.80353,933.301214331262
1736497170.80548,925.0431962800463
1736497170.80743,917.3926374746218
1736497170.8093898,910.4482757672641
1736497170.81134,904.412250154618
1736497170.81329,899.3694853400249
1736497170.81525,895.2646305276515
1736497170.8172,891.9981786625758
1736497170.81915,889.4056538561458
1736497170.82111,887.3471368620009
1736497170.82306,885.8460063824878
1736497170.82501,884.9804913131387
1736497170.8269699,884.8434396687036
1736497170.82892,885.5196420740602
1736497170.8308702,886.9870255021282
1736497170.8328202,889.1573815174381
1736497170.83478,891.9571361345744
1736497170.83673,895.2727473392963
1736497170.83868,899.0775872112489
1736497170.8406398,903.3857791004004
1736497170.84259,908.1469142998411
1736497170.84454,913.3749707744137
1736497170.8465,919.1299170168884
1736497170.84845,925.4068324797381
1736497170.8504,932.2858119224421
1736497170.85236,939.8540726118649
1736497170.85431,948.0109589272649
1736497170.85626,956.7239977397815
1736497170.8582199,965.9701707356163
1736497170.86017,975.591496863927
1736497170.8621202,985.626497341264
1736497170.8640702,996.1033245612682
1736497170.86603,1007.1106122077865
1736497170.86798,1018.5625253868724
1736497170.86993,1030.4466933490776
1736497170.8718898,1042.6991247730402
1736497170.87384,1055.0718532940682
1736497170.87579,1067.5013829657871
1736497170.87775,1080.00088659569
1736497170.8797,1092.4415282886189
1736497170.88165,1104.8823423305623
1736497170.88361,1117.3872091793737
1736497170.88556,1129.8677654547866
1736497170.88751,1142.453030401472
1736497170.8894699,1155.273070058988
1736497170.89142,1168.2607513954692
1736497170.8933702,1181.480055122035
1736497170.8953202,1194.8857997991477
1736497170.89728,1208.5051353945305
1736497170.89923,1222.1563683110355
1736497170.90118,1235.82553001748
1736497170.9031398,1249.4749198854256
1736497170.90509,1262.8637424852404
1736497170.90704,1275.9556666925375
1736497170.909,1288.766723456187
1736497170.91095,1301.155433747349
1736497170.9129,1313.1735729409968
1736497170.91486,1324.8649991828827
1736497170.91681,1336.0730800374981
1736497170.91876,1346.8069146809778
1736497170.9207199,1357.0643720473927
1736497170.92267,1366.6946687705188
1736497170.9246202,1375.7471649673735
1736497170.9265702,1384.2445878425697
1736497170.92853,1392.2521983915867
1736497170.93048,1399.7118752933352
1736497170.93243,1406.6405724360618
1736497170.9343898,1413.0137669881403
1736497170.93634,1418.7130097406948
1736497170.93829,1423.7170661436094
1736497170.94025,1428.0192058988457
1736497170.9422,1431.5666354417212
1736497170.94415,1434.3731027928955
1736497170.94611,1436.4426516085102
1736497170.94806,1437.8084322909979
1736497170.95001,1438.5757125652287
1736497170.9519699,1438.8381429418291
1736497170.95392,1438.678282368019
1736497170.9558702,1438.0787478721188
1736497170.9578202,1436.9505768596637
1736497170.95978,1435.1929126816583
1736497170.96173,1432.7429613882086
1736497170.96368,1429.6390396796392
1736497170.9656398,1425.990450950424
1736497170.96759,1421.963715888708
1736497170.96954,1417.6626528654026
1736497170.9715,1413.0587614147537
1736497170.97345,1408.1111411820266
1736497170.9754,1402.7096654471675
1736497170.97736,1396.7428273567464
1736497170.97931,1390.2925196266535
1736497170.98126,1383.4167448908972
1736497170.9832199,1376.166846098608
1736497170.98517,1368.6964309688537
1736497170.9871202,1360.962144025103
1736497170.9890702,1352.9005790172182
1736497170.99103,1344.4009781930945
1736497170.99298,1335.4898972167407
1736497170.99493,1326.1691408571223
1736497170.9968898,1316.5001090983428
1736497170.99884,1306.6899093496977
1736497171.00079,1296.8009960333031
1736497171.00275,1286.8445591992595
1736497171.0047,1276.9518620699116
1736497171.00665,1267.104529447578
1736497171.00861,1257.2843950286797
1736497171.01056,1247.6294593411876
1736497171.01251,1238.1306209319762
1736497171.0144699,1228.7831803641134
1736497171.01642,1219.7167238420125
1736497171.0183702,1210.8565182168336
1736497171.0203202,1202.136663635527
1736497171.02228,1193.4439654934313
1736497171.02423,1184.8073016720462
1736497171.02618,1176.261450365689
1736497171.0281398,1167.9341038328396
1736497171.03009,1160.078023233199
1736497171.03204,1152.8052714417636
1736497171.034,1146.0238465022394
1736497171.03595,1139.6027427923839
1736497171.0379,1133.3066651727786
1736497171.03986,1126.9191764718896
1736497171.04181,1120.52474986327
1736497171.04376,1114.2437718627293
1736497171.0457199,1108.2020787221147
1736497171.04767,1102.604340601337
1736497171.0496202,1097.4265597921199
1736497171.0515702,1092.5872436075567
1736497171.05353,1087.9788749500688
1736497171.05548,1083.5721936137984
1736497171.05743,1079.383280303034
1736497171.0593898,1075.5093950640305
1736497171.06134,1072.10619911733
1736497171.06329,1069.2605124559284
1736497171.06525,1066.938832548232
1736497171.0672,1065.0557845726566
1736497171.06915,1063.488929739881
1736497171.07111,1062.1263329155568
1736497171.07306,1060.9273053465547
1736497171.07501,1059.8636773539668
1736497171.0769699,1058.910778785417
1736497171.07892,1058.0548378728404
1736497171.0808702,1057.2310796054264
1736497171.0828202,1056.3558787341462
1736497171.08478,1055.3393312443843
1736497171.08673,1054.1116874703712
1736497171.08868,1052.6456247263136
1736497171.0906398,1050.947182216611
1736497171.09259,1049.048844629265
1736497171.09454,1046.9623646493617
1736497171.0965,1044.737606838138
1736497171.09845,1042.4864282428946
1736497171.1004,1040.2877647277155
1736497171.10236,1038.2122038862806
1736497171.10431,1036.2532994013593
1736497171.10626,1034.3010792745433
1736497171.1082199,1032.244683559581
1736497171.11017,1030.0136586861197
1736497171.1121202,1027.6236978559282
1736497171.1140702,1025.178550264794
1736497171.11603,1022.7707578016992
1736497171.11798,1020.5223439114944
1736497171.11993,1018.4345328096939
1736497171.1218898,1016.4553482301227
1736497171.12384,1014.5607962055492
1736497171.12579,1012.7031610172253
1736497171.12775,1010.8992112794887
1736497171.1297,1009.2352452343542
1736497171.13165,1007.7708252291584
1736497171.13361,1006.5648035337575
1736497171.13556,1005.6395589653495
1736497171.13751,1004.9624409891001
1736497171.1394699,1004.5053015099527
1736497171.14142,1004.2459375506847
1736497171.1433702,1004.1515807476018
1736497171.1453202,1004.1901116942063
1736497171.14728,1004.3302283735879
1736497171.14923,1004.5373991865665
1736497171.15118,1004.7691924516353
1736497171.1531398,1004.9770263218404
1736497171.15509,1005.1090388830795
1736497171.15704,1005.1234984106771
1736497171.159,1005.0587484552752
1736497171.16095,1005.0085649608304
1736497171.1629,1005.0664526271248
1736497171.16486,1005.3211107803554
1736497171.16681,1005.7737412964759
1736497171.16876,1006.3741201365432
1736497171.1707199,1007.0739878784118
1736497171.17267,1007.8188723907742
1736497171.1746202,1008.6207710088298
1736497171.1765702,1009.5251361545314
1736497171.17853,1010.584101670316
1736497171.18048,1011.8251314355547
1736497171.18243,1013.1886772477852
1736497171.1843898,1014.5490649393544
1736497171.18634,1015.7588729453944
1736497171.18829,1016.7044284960139
1736497171.19025,1017.4274604103002
1736497171.1922,1018.0647908119635
1736497171.19415,1018.7657852679087
1736497171.19611,1019.6723741287655
1736497171.19806,1020.8075167626888
1736497171.20001,1022.1383724688094
1736497171.2019699,1023.6346950194941
1736497171.20392,1025.245539954966
1736497171.2058702,1026.9687043486222
1736497171.2078202,1028.8117085946726
1736497171.20978,1030.7932289963173
1736497171.21173,1032.9112925653856
1736497171.21368,1035.307923105784
1736497171.2156398,1038.207678446158
1736497171.21759,1041.7928834160798
1736497171.21954,1046.2777010272257
1736497171.2215,1051.798890101011
1736497171.22345,1058.3443191678814
1736497171.2254,1065.9806017947164
1736497171.22736,1074.8033118843603
1736497171.22931,1084.8401838289517
1736497171.23126,1096.2968166544506
1736497171.2332199,1109.4071401622018
1736497171.23517,1124.1973546699135
1736497171.2371202,1140.7907055201104
1736497171.2390702,1159.1789959672562
1736497171.24103,1179.4645216145814
1736497171.24298,1201.44260531385
1736497171.24493,1225.2437533745986
1736497171.2468898,1251.0592901364816
1736497171.24884,1278.6936089088542
1736497171.25079,1308.3151239212675
1736497171.25275,1340.0566991809544
1736497171.2547,1373.5117258351486
1736497171.25665,1408.7431024292764
1736497171.25861,1445.8523145058489
1736497171.26056,1484.3474815041436
1736497171.26251,1524.2885470333927
1736497171.2644699,1565.7598340041914
1736497171.26642,1608.218407099082
1736497171.2683702,1651.7074315307175
1736497171.2703202,1696.025769938326
1736497171.27228,1741.2144408286179
1736497171.27423,1786.635913961915
1736497171.27618,1832.388300938148
1736497171.2781398,1878.616678963035
1736497171.28009,1924.7799229873572
1736497171.28204,1970.9986828850235
1736497171.284,2017.2552879047641
1736497171.28595,2062.731178316824
1736497171.2879,2107.300388023024
1736497171.28986,2150.840834762265
1736497171.29181,2192.7657468553853
1736497171.29376,2233.2913817824756
1736497171.2957199,2272.6028913157593
1736497171.29767,2310.2855669187093
1736497171.2996202,2346.338220663308
1736497171.3015702,2380.425862817473
1736497171.30353,2412.3777809904313
1736497171.30548,2441.56106641548
1736497171.30743,2468.0155511064077
1736497171.3093898,2491.851874760368
1736497171.31134,2512.8354701380395
1736497171.31329,2531.080462677289
1736497171.31525,2546.5649910230827
1736497171.3172,2558.9811199151327
1736497171.31915,2568.259436097115
1736497171.32111,2574.282148097187
1736497171.32306,2577.0144332008012
1736497171.32501,2576.63205923022
1736497171.3269699,2573.2493015407417
1736497171.32892,2567.032816877982
1736497171.3308702,2558.031213206406
1736497171.3328202,2546.257750310546
1736497171.33478,2531.6418804716404
1736497171.33673,2514.346702181467
1736497171.33868,2494.4086937608404
1736497171.3406398,2471.868430440718
1736497171.34259,2447.1082452605337
1736497171.34454,2420.1883607353634
1736497171.3465,2391.1229209926273
1736497171.34845,2360.373442978896
1736497171.3504,2327.9707405538657
1736497171.35236,2293.906315115118
1736497171.35431,2258.675534094202
1736497171.35626,2222.23994647769
1736497171.3582199,2184.5407033578367
1736497171.36017,2146.087331158275
1736497171.3621202,2106.8374290090505
1736497171.3640702,2066.958451364121
1736497171.36603,2026.4004405915662
1736497171.36798,1985.7258716339497
1736497171.36993,1944.8810849446718
1736497171.3718898,1903.8025355491184
1736497171.37384,1863.036698328192
1736497171.37579,1822.5309139698513
1736497171.37775,1782.237648373
1736497171.3797,1742.7265041290955
1736497171.38165,1703.9624589768794
1736497171.38361,1665.9075867832073
1736497171.38556,1628.9470558213036
1736497171.38751,1592.7763916544354
1736497171.3894699,1557.1097954286486
1736497171.39142,1522.2063401336275
1736497171.3933702,1487.9448423069448
1736497171.3953202,1454.5014117337578
1736497171.39728,1421.8814647031472
1736497171.39923,1390.5725199575797
1736497171.40118,1360.4717452868142
1736497171.4031398,1331.4342102426274
1736497171.40509,1303.7419691294267
1736497171.40704,1277.2491217402137
1736497171.409,1251.8170285885287
1736497171.41095,1227.683774607535
1736497171.4129,1204.7039239282285
1736497171.41486,1182.7503678500511
1736497171.41681,1162.0030759286158
1736497171.41876,1142.285466803042
1736497171.4207199,1123.4440590155161
1736497171.42267,1105.6095180069533
1736497171.4246202,1088.6843027651805
1736497171.4265702,1072.7117354136785
1736497171.42853,1057.6570162243208
1736497171.43048,1043.7043512278824
1736497171.43243,1030.7374823832522
1736497171.4343898,1018.6113067983399
1736497171.43634,1007.3575074802898
1736497171.43829,996.8312157720953
1736497171.44025,986.9301574358992
1736497171.4422,977.7209878063264
1736497171.44415,969.1210590642786
1736497171.44611,961.0610813053082
1736497171.44806,953.6183245945525
1736497171.45001,946.7612423134301
1736497171.4519699,940.4713521121191
1736497171.45392,934.8213288426916
1736497171.4558702,929.7695687317537
1736497171.4578202,925.297211537384
1736497171.45978,921.3650487139897
1736497171.46173,917.9963390479556
1736497171.46368,915.2076054288245
1736497171.4656398,913.0628331631534
1736497171.46759,911.6571587929834
1736497171.46954,911.0453897632265
1736497171.4715,911.2159376564799
1736497171.47345,912.0991038667763
1736497171.4754,913.6251691144101
1736497171.47736,915.7439198242325
1736497171.47931,918.4458650841527
1736497171.48126,921.8016716168144
1736497171.4832199,925.8957943790931
1736497171.48517,930.7385016036536
1736497171.4871202,936.2637411432034
1736497171.4890702,942.2945158801516
1736497171.49103,948.6866273486751
1736497171.49298,955.214552133381
1736497171.49493,961.9443280610204
1736497171.4968898,969.077409638673
1736497171.49884,976.7113148083756
1736497171.50079,985.0340599497249
1736497171.50275,994.1081105271336
1736497171.5047,1003.7640167656343
1736497171.50665,1013.9650708727909
1736497171.50861,1024.6912671035973
1736497171.51056,1035.809333447465
1736497171.51251,1047.3838666149315
1736497171.5144699,1059.487970762543
1736497171.51642,1072.0043661948398
1736497171.5183702,1084.8992683881013
1736497171.5203202,1098.0099744310628
1736497171.52228,1111.243221100254
1736497171.52423,1124.3169317652034
1736497171.52618,1137.2841170112936
1736497171.5281398,1150.2871431463664
1736497171.53009,1163.2772915849985
1736497171.53204,1176.3842651609646
1736497171.534,1189.6100024592765
1736497171.53595,1202.6679198522063
1736497171.5379,1215.468396366371
1736497171.53986,1227.9317765420856
1736497171.54181,1239.9499940107987
1736497171.54376,1251.7134674295517
1736497171.5457199,1263.4078710876686
1736497171.54767,1275.0319718669489
1736497171.5496202,1286.6090852381815
1736497171.5515702,1297.9992711445902
1736497171.55353,1309.119475061357
1736497171.55548,1319.7263999046497
1736497171.55743,1329.8304641321683
1736497171.5593898,1339.4895457979937
1736497171.56134,1348.6203589797876
1736497171.56329,1357.2825157445395
1736497171.56525,1365.5358355667797
1736497171.5672,1373.3207556763691
1736497171.56915,1380.7022960190568
1736497171.57111,1387.735333993974
1736497171.57306,1394.3338538098708
1736497171.57501,1400.4982331767394
1736497171.5769699,1406.2188518086418
1736497171.57892,1411.403032559292
1736497171.5808702,1416.0631663803294
1736497171.5828202,1420.191866643118
1736497171.58478,1423.8003400339092
1736497171.58673,1426.8430869139347
1736497171.58868,1429.2884731809274
1736497171.5906398,1431.0650317674383
1736497171.59259,1432.075789140267
1736497171.59454,1432.2645713989245
1736497171.5965,1431.7109969849628
1736497171.59845,1430.604760097317
1736497171.6004,1429.1299807606151
1736497171.60236,1427.4487909444886
1736497171.60431,1425.579411957123
1736497171.60626,1423.4025569273176
1736497171.6082199,1420.7909458250545
1736497171.61017,1417.6620929579917
1736497171.6121202,1413.9552378749531
1736497171.6140702,1409.662453792558
1736497171.61603,1404.7491895457838
1736497171.61798,1399.2603535689186
1736497171.61993,1393.2177706667383
1736497171.6218898,1386.6649515567192
1736497171.62384,1379.7445632857246
1736497171.62579,1372.5027519009927
1736497171.62775,1364.9542571096245
1736497171.6297,1357.2136570069476
1736497171.63165,1349.282791126305
1736497171.63361,1341.1523654302398
1736497171.63556,1332.863237106252
1736497171.63751,1324.2829682440179
1736497171.6394699,1315.2733702639907
1736497171.64142,1305.8448918502595
1736497171.6433702,1296.0313654865079
1736497171.6453202,1286.0189067341032
1736497171.64728,1275.9419220127324
1736497171.64923,1266.0770891056886
1736497171.65118,1256.4263502622339
1736497171.6531398,1246.9134085056971
1736497171.65509,1237.6011813777238
1736497171.65704,1228.4150530390598
1736497171.659,1219.3004500674901
1736497171.66095,1210.3538043652386
1736497171.6629,1201.5350871659195
1736497171.66486,1192.8126381566676
1736497171.66681,1184.369458221399
1736497171.66876,1176.3075060430165
1736497171.6707199,1168.7384245448447
1736497171.67267,1161.8700102743007
1736497171.6746202,1155.599094597879
1736497171.6765702,1149.7347452249537
1736497171.67853,1144.0532660170625
1736497171.68048,1138.4323073693874
1736497171.68243,1132.864662338997
1736497171.6843898,1127.4781483610636
1736497171.68634,1122.4828468538128
1736497171.68829,1118.0004499647384
1736497171.69025,1114.0598207150088
1736497171.6922,1110.6815393056713
1736497171.69415,1107.8247229988306
1736497171.69611,1105.4526824539535
1736497171.69806,1103.492352252066
1736497171.70001,1101.7865729224227
1736497171.7019699,1100.1827704000832
1736497171.70392,1098.5609125159883
1736497171.7058702,1096.8880096552891
1736497171.7078202,1095.2133032194222
1736497171.70978,1093.578786361981
1736497171.71173,1092.0461675720971
1736497171.71368,1090.5925893693336
1736497171.7156398,1089.156713683117
1736497171.71759,1087.6975961568119
1736497171.71954,1086.1576694446276
1736497171.7215,1084.5274007564467
1736497171.72345,1082.8550455465738
1736497171.7254,1081.1650988904892
1736497171.72736,1079.479656747779
1736497171.72931,1077.8248237726327
1736497171.73126,1076.186407492251
1736497171.7332199,1074.5504930834584
1736497171.73517,1072.927365382181
1736497171.7371202,1071.2997583532854
1736497171.7390702,1069.6572781395148
1736497171.74103,1067.980454636078
1736497171.74298,1066.281230612081
1736497171.74493,1064.620012485635
1736497171.7468898,1063.1072266130548
1736497171.74884,1061.8765864268953
1736497171.75079,1061.0273889880623
1736497171.75275,1060.5290735410297
1736497171.7547,1060.2676052296042
1736497171.75665,1060.119597177932
1736497171.75861,1059.9706834794329
1736497171.76056,1059.7887719314785
1736497171.76251,1059.5924733735771
1736497171.7644699,1059.4010741639936
1736497171.76642,1059.237649923467
1736497171.7683702,1059.1330189515927
1736497171.7703202,1059.1261372543706
1736497171.77228,1059.2571030809065
1736497171.77423,1059.5601233992209
1736497171.77618,1060.0261307020035
1736497171.7781398,1060.619350430181
1736497171.78009,1061.294276598705
1736497171.78204,1062.0149334774794
1736497171.784,1062.758961694838
1736497171.78595,1063.5008654198882
1736497171.7879,1064.2264693155514
1736497171.78986,1064.9275321592145
1736497171.79181,1065.6584202089718
1736497171.79376,1066.532227826004
1736497171.7957199,1067.6656976506972
1736497171.79767,1069.1427862264468
1736497171.7996202,1070.8767922056927
1736497171.8015702,1072.6516738880832
1736497171.80353,1074.2570182381814
1736497171.80548,1075.4751871833805
1736497171.80743,1076.3204552172315
1736497171.8093898,1076.9380220016164
1736497171.81134,1077.467303980515
1736497171.81329,1078.0456411206105
1736497171.81525,1078.6775725900263
1736497171.8172,1079.269860976893
1736497171.81915,1079.737462196016
1736497171.82111,1079.9972247371375
1736497171.82306,1080.0143144473968
1736497171.82501,1079.7927722738823
1736497171.8269699,1079.3324162938738
1736497171.82892,1078.6440611804196
1736497171.8308702,1077.774452455274
1736497171.8328202,1076.8004597390989
1736497171.83478,1075.7941801821826
1736497171.83673,1074.8377088415086
1736497171.83868,1073.9323804104547
1736497171.8406398,1073.0367002066785
1736497171.84259,1072.1215542834002
1736497171.84454,1071.14695719799
1736497171.8465,1070.0962957855895
1736497171.84845,1068.9853161763256
1736497171.8504,1067.8144856631206
1736497171.85236,1066.5834328815833
1736497171.85431,1065.316927680459
1736497171.85626,1064.0249734801378
1736497171.8582199,1062.7172816452762
1736497171.86017,1061.4351760315642
1736497171.8621202,1060.3448237915725
1736497171.8640702,1059.7151675353336
1736497171.86603,1059.8192268533267
1736497171.86798,1060.9145982493526
1736497171.86993,1063.1020326134426
1736497171.8718898,1066.4000970277102
1736497171.87384,1070.77402341064
1736497171.87579,1076.2444119159493
1736497171.87775,1082.98238085223
1736497171.8797,1091.1385256031358
1736497171.88165,1100.9615798683544
1736497171.88361,1112.7285124795635
1736497171.88556,1126.4511437139147
1736497171.88751,1142.2631703139937
1736497171.8894699,1160.3379737743462
1736497171.89142,1180.567857806092
1736497171.8933702,1203.0477463195878
1736497171.8953202,1227.736490041478
1736497171.89728,1254.7403615221633
1736497171.89923,1283.7548591500608
1736497171.90118,1314.8918156610325
1736497171.9031398,1348.3174338008287
1736497171.90509,1383.6970949362924
1736497171.90704,1421.168099517142
1736497171.909,1460.8023963632213
1736497171.91095,1501.9902980028462
1736497171.9129,1544.7099316909118
1736497171.91486,1588.9804563001844
1736497171.91681,1634.1958008702993
1736497171.91876,1680.4634471736372
1736497171.9207199,1727.907371399055
1736497171.92267,1775.9330378146649
1736497171.9246202,1824.5882760501281
1736497171.9265702,1873.6210478399046
1736497171.92853,1923.0427586027695
1736497171.93048,1972.1184023154929
1736497171.93243,2020.8531846544934
1736497171.9343898,2069.245357921809
1736497171.93634,2116.575636200799
1736497171.93829,2162.84114466676
1736497171.94025,2208.1198814162763
1736497171.9422,2251.8648447318596
1736497171.94415,2294.2110630554657
1736497171.94611,2335.2577630570886
1736497171.94806,2374.3289574909977
1736497171.95001,2411.284467573283
1736497171.9519699,2445.9347826900903
1736497171.95392,2477.596182650469
1736497171.9558702,2506.343767813749
1736497171.9578202,2532.214789167337
1736497171.95978,2555.3684166497433
1736497171.96173,2575.615992532596
1736497171.96368,2593.063312676883
1736497171.9656398,2607.7204783373527
1736497171.96759,2619.3858316157884
1736497171.96954,2628.0817905919725
1736497171.9715,2633.792906159446
1736497171.97345,2636.435454687827
1736497171.9754,2636.0190407475134
1736497171.97736,2632.5006444650485
1736497171.97931,2626.0106401944695
1736497171.98126,2616.706316117218
1736497171.9832199,2604.690016199482
1736497171.98517,2590.24427013724
1736497171.9871202,2573.3948412319323
1736497171.9890702,2554.1738693591255
1736497171.99103,2532.4925228271063
1736497171.99298,2508.6025763028165
1736497171.99493,2482.537460226858
1736497171.9968898,2454.354238167475
1736497171.99884,2424.534595119598
1736497172.00079,2393.1494034527595
1736497172.00275,2360.1775223927475
1736497172.0047,2326.065993585424
1736497172.00665,2290.770866576381
1736497172.00861,2254.222339098899
1736497172.01056,2216.94249098987
1736497172.01251,2178.9140734446064
1736497172.0144699,2140.1095306991647
1736497172.01642,2101.0823909739906
1736497172.0183702,2061.7839055022714
1736497172.0203202,2022.360442887877
1736497172.02228,1982.7464090800415
1736497172.02423,1943.4638334499357
1736497172.02618,1904.3174987918592
1736497172.0281398,1865.0318984843072
1736497172.03009,1825.9127733398814
1736497172.03204,1786.705286781548
1736497172.034,1747.292819936902
1736497172.03595,1708.2551017004978
1736497172.0379,1669.5830115487374
1736497172.03986,1631.2658879591027
1736497172.04181,1593.8288307257378
1736497172.04376,1557.1743061198968
1736497172.0457199,1521.224591778792
1736497172.04767,1486.4331266290374
1736497172.0496202,1452.6505825941028
1736497172.0515702,1419.8830721556844
1736497172.05353,1387.966895884641
1736497172.05548,1357.2240812744733
1736497172.05743,1327.5748938711276
1736497172.0593898,1299.0140940353265
1736497172.06134,1271.9587848896865
1736497172.06329,1246.3924938401915
1736497172.06525,1222.1685821583687
1736497172.0672,1199.403898039553
1736497172.06915,1177.8480220656313
1736497172.07111,1157.2768225514342
1736497172.07306,1137.831267710562
1736497172.07501,1119.3694135301669
1736497172.0769699,1101.7722570485155
1736497172.07892,1085.18502748632
1736497172.0808702,1069.5263898282979
1736497172.0828202,1054.8378858021122
1736497172.08478,1041.0897506912556
1736497172.08673,1028.4505082495177
1736497172.08868,1016.7960526555645
1736497172.0906398,1005.9655752734548
1736497172.09259,995.9556769282644
1736497172.09454,986.6108244237337
1736497172.0965,977.8820959545554
1736497172.09845,969.9145904974671
1736497172.1004,962.721992749881
1736497172.10236,956.3239980363539
1736497172.10431,950.7316994745955
1736497172.10626,945.7874329145882
1736497172.1082199,941.3461376330656
1736497172.11017,937.3377290311194
1736497172.1121202,933.7469650511861
1736497172.1140702,930.6644137624813
1736497172.11603,928.1699556238287
1736497172.11798,926.3741709821534
1736497172.11993,925.2781277564053
1736497172.1218898,924.8498370242241
1736497172.12384,925.061191725308
1736497172.12579,925.8793642638941
1736497172.12775,927.3242250591558
1736497172.1297,929.4191404839884
1736497172.13165,932.2078340376828
1736497172.13361,935.7439747762322
1736497172.13556,939.9723403100044
1736497172.13751,944.8553269734562
1736497172.1394699,950.3674636478436
1736497172.14142,956.4007233721221
1736497172.1433702,962.9480547763096
1736497172.1453202,969.9864650676727
1736497172.14728,977.5343502550958
1736497172.14923,985.4961897460483
1736497172.15118,993.9007432320129
1736497172.1531398,1002.7939831236206
1736497172.15509,1012.0890094630754
1736497172.15704,1021.8250652866936
1736497172.159,1032.0246209741458
1736497172.16095,1042.5362103830169
1736497172.1629,1053.3598649660985
1736497172.16486,1064.5050790892428
1736497172.16681,1075.8314159731476
1736497172.16876,1087.3829828392388
1736497172.1707199,1099.2073245239667
1736497172.17267,1111.1737023931385
1736497172.1746202,1123.3198540913913
1736497172.1765702,1135.6143131066872
1736497172.17853,1148.0924421444288
1736497172.18048,1160.601654909268
1736497172.18243,1173.1833730735655
1736497172.1843898,1185.885471991911
1736497172.18634,1198.5672183624786
1736497172.18829,1211.271780998644
1736497172.19025,1224.029828863602
1736497172.1922,1236.6679126119602
1736497172.19415,1249.2035374081652
1736497172.19611,1261.6520980882133
1736497172.19806,1273.8199909003777
1736497172.20001,1285.6929836170125
1736497172.2019699,1297.2491808027398
1736497172.20392,1308.3028114445883
1736497172.2058702,1318.9438728714558
1736497172.2078202,1329.26630686893
1736497172.20978,1339.4194174627344
1736497172.21173,1349.3869009224727
1736497172.21368,1359.14572011196
1736497172.2156398,1368.5621879224043
1736497172.21759,1377.3613800002383
1736497172.21954,1385.4202723146072
1736497172.2215,1392.7544704480254
1736497172.22345,1399.3693724078473
1736497172.2254,1405.383393335745
1736497172.22736,1410.8962126826727
1736497172.22931,1415.8377821793672
1736497172.23126,1420.1668867943745
1736497172.2332199,1423.8282885104575
1736497172.23517,1426.720377402064
1736497172.2371202,1428.8816567281858
1736497172.2390702,1430.384897129331
1736497172.24103,1431.307950038608
1736497172.24298,1431.711622285732
1736497172.24493,1431.6164305222835
1736497172.2468898,1430.995856303627
1736497172.24884,1429.8330838632537
1736497172.25079,1428.1089725615607
1736497172.25275,1425.8546973815833
1736497172.2547,1423.177452974892
1736497172.25665,1420.1523028294735
1736497172.25861,1416.8375011852959
1736497172.26056,1413.2313697967495
1736497172.26251,1409.208871759676
1736497172.2644699,1404.6356800790231
1736497172.26642,1399.4590458209723
1736497172.2683702,1393.7049861399298
1736497172.2703202,1387.5199081785838
1736497172.27228,1381.0169572927625
1736497172.27423,1374.3983632341112
1736497172.27618,1367.6486464288082
1736497172.2781398,1360.668950303907
1736497172.28009,1353.4628544577843
1736497172.28204,1345.9413420222907
1736497172.284,1338.1085586135225
1736497172.28595,1330.1546989495885
1736497172.2879,1322.154069873747
1736497172.28986,1314.1716800999172
1736497172.29181,1306.307239985619
1736497172.29376,1298.4801402796397
1736497172.2957199,1290.610461205803
1736497172.29767,1282.7398716625803
1736497172.2996202,1274.8388847103029
1736497172.3015702,1266.9515231111966
1736497172.30353,1259.0804214942823
1736497172.30548,1251.3454095512632
1736497172.30743,1243.7298738282473
1736497172.3093898,1236.207317464062
1736497172.31134,1228.8624009706436
1736497172.31329,1221.6650509859319
1736497172.31525,1214.5308436597584
1736497172.3172,1207.446734294841
1736497172.31915,1200.2924594761907
1736497172.32111,1192.9588567682583
1736497172.32306,1185.608503508637
1736497172.32501,1178.3961936746146
1736497172.3269699,1171.482255129028
1736497172.32892,1165.113902380937
1736497172.3308702,1159.2366115833613
1736497172.3328202,1153.7036501986618
1736497172.33478,1148.3372576999027
1736497172.33673,1143.053454278116
1736497172.33868,1137.8523031731675
1736497172.3406398,1132.84557764128
1736497172.34259,1128.2211781496644
1736497172.34454,1124.0767895389135
1736497172.3465,1120.3260714271491
1736497172.34845,1116.8119446370965
1736497172.3504,1113.3188968729517
1736497172.35236,1109.6489428435063
1736497172.35431,1105.868741180514
1736497172.35626,1102.1260842821482
1736497172.3582199,1098.5724143119448
1736497172.36017,1095.3944997329438
1736497172.3621202,1092.5099724875042
1736497172.3640702,1089.7138217775919
1736497172.36603,1086.7821680658913
1736497172.36798,1083.5570195354285
1736497172.36993,1080.1018265001246
1736497172.3718898,1076.652473565474
1736497172.37384,1073.4998222294232
1736497172.37579,1070.8614959352578
1736497172.37775,1068.7028402988592
1736497172.3797,1066.8486666212755
1736497172.38165,1065.0881771020488
1736497172.38361,1063.2280924722877
1736497172.38556,1061.2917954871405
1736497172.38751,1059.398300663237
1736497172.3894699,1057.6699247804
1736497172.39142,1056.2429691294178
1736497172.3933702,1055.0846114792214
1736497172.3953202,1054.0774201364877
1736497172.39728,1053.0968374251502
1736497172.39923,1052.0418938313758
1736497172.40118,1050.9077394210985
1736497172.4031398,1049.7618988787283
1736497172.40509,1048.6904308023145
1736497172.40704,1047.7568147866643
1736497172.409,1046.9602182822389
1736497172.41095,1046.2676610750975
1736497172.4129,1045.6333133150251
1736497172.41486,1045.0155735456474
1736497172.41681,1044.4193612156075
1736497172.41876,1043.8645575921896
1736497172.4207199,1043.372390414398
1736497172.42267,1042.9709666571325
1736497172.4246202,1042.676115238634
1736497172.4265702,1042.5033524713017
1736497172.42853,1042.46821843398
1736497172.43048,1042.585020422524
1736497172.43243,1042.849071513767
1736497172.4343898,1043.2465361951492
1736497172.43634,1043.757116250575
1736497172.43829,1044.3659183366651
1736497172.44025,1045.0589760756586
1736497172.4422,1045.8108423395938
1736497172.44415,1046.6063168291325
1736497172.44611,1047.433094691395
1736497172.44806,1048.2888508212582
1736497172.45001,1049.1988056922125
1736497172.4519699,1050.189437609016
1736497172.45392,1051.2649204621184
1736497172.4558702,1052.355445968533
1736497172.4578202,1053.3272952960676
1736497172.45978,1054.0488514945703
1736497172.46173,1054.3924153050834
1736497172.46368,1054.4180072817612
1736497172.4656398,1054.2970565880016
1736497172.46759,1054.2056884702372
1736497172.46954,1054.3056089731724
1736497172.4715,1054.6142532052934
1736497172.47345,1055.0465780115533
1736497172.4754,1055.5203141301452
1736497172.47736,1055.9591636875775
1736497172.47931,1056.3404185004827
1736497172.48126,1056.6880327182155
1736497172.4832199,1057.0259417597288
1736497172.48517,1057.3685799301775
1736497172.4871202,1057.6807332061185
1736497172.4890702,1057.8891386929765
1736497172.49103,1057.9195927702917
1736497172.49298,1057.7075483039418
1736497172.49493,1057.3091215494574
1736497172.4968898,1056.8567689305366
1736497172.49884,1056.4915708527706
1736497172.50079,1056.3349643197917
1736497172.50275,1056.3605113314857
1736497172.5047,1056.4409908094576
1736497172.50665,1056.4479621940463
1736497172.50861,1056.2692099821827
1736497172.51056,1056.0059286845312
1736497172.51251,1055.8949998892335
1736497172.5144699,1056.1788589764012
1736497172.51642,1057.083506290723
1736497172.5183702,1058.6947793886966
1736497172.5203202,1061.0031956451246
1736497172.52228,1064.0148531887726
1736497172.52423,1067.6962578988853
1736497172.52618,1072.1463029769197
1736497172.5281398,1077.5390025861896
1736497172.53009,1083.967667146202
1736497172.53204,1091.5992989066076
1736497172.534,1100.608228613134
1736497172.53595,1111.0176733854375
1736497172.5379,1122.9815347609049
1736497172.53986,1136.6916824952925
1736497172.54181,1152.1850256185005
1736497172.54376,1169.7423215496249
1736497172.5457199,1189.684901047875
1736497172.54767,1212.0137382995365
1736497172.5496202,1236.8221973252707
1736497172.5515702,1263.9666159821259
1736497172.55353,1293.4622878775078
1736497172.55548,1324.8775859467553
1736497172.55743,1358.255858684991
1736497172.5593898,1393.7056376256135
1736497172.56134,1430.805182545365
1736497172.56329,1469.6397582785548
1736497172.56525,1510.2777858881275
1736497172.5672,1552.1278752698825
1736497172.56915,1595.2028860199603
1736497172.57111,1639.550130184189
1736497172.57306,1684.586402605937
1736497172.57501,1730.440597300133
1736497172.5769699,1777.2533134461557
1736497172.57892,1824.4537362756446
1736497172.5808702,1872.0688515473084
1736497172.5828202,1919.805319210338
1736497172.58478,1967.6236436420622
1736497172.58673,2014.7748266045119
1736497172.58868,2061.373798982683
1736497172.5906398,2107.6227286078115
1736497172.59259,2153.040381497473
1736497172.59454,2197.806344529089
1736497172.5965,2241.9066054066593
1736497172.59845,2284.5334780374083
1736497172.6004,2325.540909749283
1736497172.60236,2364.7685002503754
1736497172.60431,2401.6193186966116
1736497172.60626,2436.209342918699
1736497172.6082199,2468.6061585208854
1736497172.61017,2498.3927296194306
1736497172.6121202,2525.579686167861
1736497172.6140702,2549.9561335821127
1736497172.61603,2571.4197049574827
1736497172.61798,2589.563332679761
1736497172.61993,2604.4656191638355
1736497172.6218898,2616.244675605808
1736497172.62384,2624.8532038198823
1736497172.62579,2630.421421107561
1736497172.62775,2632.9805793619726
1736497172.6297,2632.5028516553593
1736497172.63165,2629.0057873210244
1736497172.63361,2622.449656698396
1736497172.63556,2612.9542437504956
1736497172.63751,2600.580059828084
1736497172.6394699,2585.331038675904
1736497172.64142,2567.451435064132
1736497172.6433702,2547.020694647979
1736497172.6453202,2524.2344771288217
1736497172.64728,2499.1515690997
1736497172.64923,2472.2104281432707
1736497172.65118,2443.4314373055745
1736497172.6531398,2412.7664127023877
1736497172.65509,2380.62604698976
1736497172.65704,2346.9820007879084
1736497172.659,2311.814475139734
1736497172.66095,2275.670738187267
1736497172.6629,2238.5748091094974
1736497172.66486,2200.518165332946
1736497172.66681,2161.974103385402
1736497172.66876,2122.7658183675535
1736497172.6707199,2082.706528517167
1736497172.67267,2042.221960707939
1736497172.6746202,2001.2727125343054
1736497172.6765702,1960.1239774072744
1736497172.67853,1918.8221186488101
1736497172.68048,1878.021764426644
1736497172.68243,1837.5740584539456
1736497172.6843898,1797.2137778595475
1736497172.68634,1757.271683045737
1736497172.68829,1717.508593370371
1736497172.69025,1677.9149450715408
1736497172.6922,1639.236485799042
1736497172.69415,1601.62665592366
1736497172.69611,1565.2311190835314
1736497172.69806,1530.4551181964948
1736497172.70001,1496.9479308817072
1736497172.7019699,1464.3853362921259
1736497172.70392,1432.9382265246238
1736497172.7058702,1402.41788459143
1736497172.7078202,1372.9001301911287
1736497172.70978,1344.3113070355553
1736497172.71173,1317.002104788822
1736497172.71368,1290.8353285125936
1736497172.7156398,1265.6584424276577
1736497172.71759,1241.6892368309796
1736497172.71954,1218.7754911799402
1736497172.7215,1196.785032887209
1736497172.72345,1175.920213372677
1736497172.7254,1156.0519233938044
1736497172.72736,1137.064792345052
1736497172.72931,1119.084226212549
1736497172.73126,1101.9111080778068
1736497172.7332199,1085.3643375622955
1736497172.73517,1069.5191751189884
1736497172.7371202,1054.3303734039116
1736497172.7390702,1039.9287479930483
1736497172.74103,1026.375941558046
1736497172.74298,1013.9272634733812
1736497172.74493,1002.5229324381464
1736497172.7468898,992.0507832679501
1736497172.74884,982.5503229276711
1736497172.75079,973.9081138533189
1736497172.75275,966.0545495239668
1736497172.7547,959.0564469773727
1736497172.75665,952.8614480600445
1736497172.75861,947.431913276527
1736497172.76056,942.8019536723991
1736497172.76251,938.9143558958568
1736497172.7644699,935.7274083087246
1736497172.76642,933.2456316546601
1736497172.7683702,931.4289125885826
1736497172.7703202,930.258668025415
1736497172.77228,929.7144944585441
1736497172.77423,929.7789866164188
1736497172.77618,930.3794180422567
1736497172.7781398,931.4231676565913
1736497172.78009,932.8002935639319
1736497172.78204,934.4267427481527
1736497172.784,936.3629655007255
1736497172.78595,938.7311036454562
1736497172.7879,941.6824441663276
1736497172.78986,945.3672842840521
1736497172.79181,949.7213691297661
1736497172.79376,954.6322228552062
1736497172.7957199,959.996295746084
1736497172.79767,965.6399150633495
1736497172.7996202,971.6092509360702
1736497172.8015702,978.0147835516545
1736497172.80353,985.007250068951
1736497172.80548,992.6199624725361
1736497172.80743,1000.8562856226299
1736497172.8093898,1009.6431437068003
1736497172.81134,1018.773971024918
1736497172.81329,1028.1763352046564
1736497172.81525,1037.8682819959572
1736497172.8172,1047.7747759404392
1736497172.81915,1057.9660534247075
1736497172.82111,1068.516158094873
1736497172.82306,1079.2985803990914
1736497172.82501,1090.3227431420894
1736497172.8269699,1101.6012077347305
1736497172.82892,1112.9773100791435
1736497172.8308702,1124.4660461085095
1736497172.8328202,1136.0235579990408
1736497172.83478,1147.6683069360388
1736497172.83673,1159.2447819333352
1736497172.83868,1170.7941577622441
1736497172.8406398,1182.3720271838129
1736497172.84259,1193.8624737903865
1736497172.84454,1205.3178328769857
1736497172.8465,1216.7834477928013
1736497172.84845,1228.1248454990925
1736497172.8504,1239.3792130350257
1736497172.85236,1250.584751630225
1736497172.85431,1261.6248227231617
1736497172.85626,1272.565785664323
1736497172.8582199,1283.4708372157645
1736497172.86017,1294.2330875223345
1736497172.8621202,1304.8239141507227
1736497172.8640702,1315.0989380722956
1736497172.86603,1324.9644886404599
1736497172.86798,1334.1891695229024
1736497172.86993,1342.8167820954764
1736497172.8718898,1350.963461247974
1736497172.87384,1358.6273458081025
1736497172.87579,1365.9213675500296
1736497172.87775,1372.8899548552158
1736497172.8797,1379.4311710954228
1736497172.88165,1385.5476670684316
1736497172.88361,1391.235043217205
1736497172.88556,1396.412482575034
1736497172.88751,1401.0939808632527
1736497172.8894699,1405.2829706444136
1736497172.89142,1408.9205682290976
1736497172.8933702,1412.001690776836
1736497172.8953202,1414.4909469645067
1736497172.89728,1416.3616911474978
1736497172.89923,1417.5627365445605
1736497172.90118,1418.1013626112783
1736497172.9031398,1417.9908198252688
1736497172.90509,1417.2478864675263
1736497172.90704,1415.8939211701083
1736497172.909,1413.9911838826965
1736497172.91095,1411.6671232561844
1736497172.9129,1409.0221485772427
1736497172.91486,1406.1395054968752
1736497172.91681,1403.0245082005968
1736497172.91876,1399.558112236081
1736497172.9207199,1395.6131047468557
1736497172.92267,1391.1323037426578
1736497172.9246202,1386.1226461093759
1736497172.9265702,1380.692345007296
1736497172.92853,1374.9198515154767
1736497172.93048,1368.9672684568814
1736497172.93243,1362.8579108946928
1736497172.9343898,1356.576631291425
1736497172.93634,1350.2012516001032
1736497172.93829,1343.7158178324858
1736497172.94025,1337.0704991382013
1736497172.9422,1330.2966642342692
1736497172.94415,1323.326392226784
1736497172.94611,1316.094782598091
1736497172.94806,1308.7415248638024
1736497172.95001,1301.3570531730888
1736497172.9519699,1294.0331421369017
1736497172.95392,1286.9585310091536
1736497172.9558702,1280.0573285617897
1736497172.9578202,1273.1913863512905
1736497172.95978,1266.1827460755378
1736497172.96173,1258.9704761880848
1736497172.96368,1251.5271710099366
1736497172.9656398,1243.9129604468922
1736497172.96759,1236.3031972129884
1736497172.96954,1228.7579579651238
1736497172.9715,1221.287380978728
1736497172.97345,1213.9823125733697
1736497172.9754,1206.8208838267456
1736497172.97736,1199.7814062328632
1736497172.97931,1192.927675002063
1736497172.98126,1186.2007334159555
1736497172.9832199,1179.544776088494
1736497172.98517,1173.004407950671
1736497172.9871202,1166.5373618451754
1736497172.9890702,1160.1462322278057
1736497172.99103,1153.79993828849
1736497172.99298,1147.5639193815014
1736497172.99493,1141.4199252327983
1736497172.9968898,1135.3592468154409
1736497172.99884,1129.4630583419605
1736497173.00079,1123.7249754051402
1736497173.00275,1118.156255197439
1736497173.0047,1112.862774077993
1736497173.00665,1107.8665316558236
1736497173.00861,1103.1884744132708
1736497173.01056,1098.8436606503474
1736497173.01251,1094.7242041449945
1736497173.0144699,1090.726426247324
1736497173.01642,1086.8167139394586
1736497173.0183702,1083.0316966388827
1736497173.0203202,1079.5161029437922
1736497173.02228,1076.4005396226917
1736497173.02423,1073.844734251748
1736497173.02618,1071.7512833679832
1736497173.0281398,1069.892051750859
1736497173.03009,1068.0628484239828
1736497173.03204,1066.0523970201052
1736497173.034,1063.8838275133112
1736497173.03595,1061.770418693697
1736497173.0379,1059.8952093165808
1736497173.03986,1058.4329690524478
1736497173.04181,1057.4271193350537
1736497173.04376,1056.796701643492
1736497173.0457199,1056.466692633226
1736497173.04767,1056.3646957496892
1736497173.0496202,1056.3964645703843
1736497173.0515702,1056.459102072347
1736497173.05353,1056.4491274434727
1736497173.05548,1056.2716000760888
1736497173.05743,1055.9342929320428
1736497173.0593898,1055.5102976321925
1736497173.06134,1055.0806176264493
1736497173.06329,1054.7131787635585
1736497173.06525,1054.3950089549908
1736497173.0672,1054.0638646317323
1736497173.06915,1053.651979800788
1736497173.07111,1053.0988449503914
1736497173.07306,1052.4589010487487
1736497173.07501,1051.8481212714344
1736497173.0769699,1051.3843775114165
1736497173.07892,1051.183398666057
1736497173.0808702,1051.2443043438868
1736497173.0828202,1051.4968783854106
1736497173.08478,1051.8716789465007
1736497173.08673,1052.2947292353876
1736497173.08868,1052.7163820151654
1736497173.0906398,1053.0994803416568
1736497173.09259,1053.4013910510773
1736497173.09454,1053.5914375172767
1736497173.0965,1053.7104301541908
1736497173.09845,1053.8460617716983
1736497173.1004,1054.0884037374492
1736497173.10236,1054.5199429251522
1736497173.10431,1055.10006316357
1736497173.10626,1055.718018433891
1736497173.1082199,1056.2624097754433
1736497173.11017,1056.6233478254612
1736497173.1121202,1056.8175305148877
1736497173.1140702,1056.936609836176
1736497173.11603,1057.074595092188
1736497173.11798,1057.3134483869535
1736497173.11993,1057.614338439661
1736497173.1218898,1057.857616338503
1736497173.12384,1057.9183716465952
1736497173.12579,1057.6907597229842
1736497173.12775,1057.2422548515456
1736497173.1297,1056.7655379666987
1736497173.13165,1056.4482843662267
1736497173.13361,1056.4646735905042
1736497173.13556,1056.789747583461
1736497173.13751,1057.2675068992783
1736497173.1394699,1057.7426943676728
1736497173.14142,1058.0646496904485
1736497173.1433702,1058.2365364373327
1736497173.1453202,1058.3556853057173
1736497173.14728,1058.5223339450026
1736497173.14923,1058.8248413297533
1736497173.15118,1059.2389399756084
1736497173.1531398,1059.665797877189
1736497173.15509,1059.9985831771896
1736497173.15704,1060.1469521879253
1736497173.159,1060.1357302548938
1736497173.16095,1060.068430643892
1736497173.1629,1060.0496729769816
1736497173.16486,1060.1813181518733
1736497173.16681,1060.518438392079
1736497173.16876,1061.088081179738
1736497173.1707199,1061.9214299370963
1736497173.17267,1063.0416314660947
1736497173.1746202,1064.5442636524779
1736497173.1765702,1066.5609842817155
1736497173.17853,1069.239887650391
1736497173.18048,1072.6840340154818
1736497173.18243,1076.9920247200505
1736497173.1843898,1082.2514607678063
1736497173.18634,1088.4693976711478
1736497173.18829,1095.7356398431195
1736497173.19025,1104.2729212451143
1736497173.1922,1114.2450363919309
1736497173.19415,1125.9404972595926
1736497173.19611,1139.6703296341188
1736497173.19806,1155.3659452378936
1736497173.20001,1173.0554063989648
1736497173.2019699,1192.8033132573112
1736497173.20392,1214.3783621091625
1736497173.2058702,1237.8984446012748
1736497173.2078202,1263.4158147327144
1736497173.20978,1291.135403789362
1736497173.21173,1320.8305302406316
1736497173.21368,1352.5744821662586
1736497173.2156398,1386.4083290086369
1736497173.21759,1421.8648677040624
1736497173.21954,1458.9688302652555
1736497173.2215,1497.8265694753898
1736497173.22345,1537.978008086726
1736497173.2254,1579.541395799445
1736497173.22736,1622.6649647230674
1736497173.22931,1666.7886095326203
1736497173.23126,1711.9815469401276
1736497173.2332199,1758.3287791006646
1736497173.23517,1805.2142549148502
1736497173.2371202,1852.6610992812562
1736497173.2390702,1900.4071447075441
1736497173.24103,1948.4462501966748
1736497173.24298,1996.0509119103606
1736497173.24493,2043.2619333242699
1736497173.2468898,2090.144643183103
1736497173.24884,2136.069966151076
1736497173.25079,2181.0887638948516
1736497173.25275,2225.165069325243
1736497173.2547,2267.543630549908
1736497173.25665,2308.1322110655883
1736497173.25861,2346.818002422028
1736497173.26056,2383.028022035417
1736497173.26251,2416.872801247995
1736497173.2644699,2448.41205919105
1736497173.26642,2477.2322258030563
1736497173.2683702,2503.3134488018923
1736497173.2703202,2526.4046735679094
1736497173.27228,2546.354558249327
1736497173.27423,2562.7400427184575
1736497173.27618,2575.719576888938
1736497173.2781398,2585.5667845122866
1736497173.28009,2592.4204044439643
1736497173.28204,2596.5528944880693
1736497173.284,2597.9642709451946
1736497173.28595,2596.4941852996294
1736497173.2879,2592.0083744454164
1736497173.28986,2584.3290942700487
1736497173.29181,2573.619962288678
1736497173.29376,2560.0765813595845
1736497173.2957199,2543.840941953653
1736497173.29767,2525.29936825102
1736497173.2996202,2504.5290189212287
1736497173.3015702,2481.6437556470137
1736497173.30353,2456.6194539932694
1736497173.30548,2429.8167642852472
1736497173.30743,2401.257891191495
1736497173.3093898,2370.95091794326
1736497173.31134,2339.3582604269386
1736497173.31329,2306.498805314886
1736497173.31525,2272.2948201737418
1736497173.3172,2237.1481455384537
1736497173.31915,2200.950743432793
1736497173.32111,2163.573876044587
1736497173.32306,2125.523687093621
1736497173.32501,2086.774380163168
1736497173.3269699,2047.291311199264
1736497173.32892,2007.6280711362385
1736497173.3308702,1967.690912590916
1736497173.3328202,1927.5619038736806
1736497173.33478,1887.1058730685918
1736497173.33673,1846.8003769289487
1736497173.33868,1806.541748139034
1736497173.3406398,1766.243483558383
1736497173.34259,1726.4174066550827
1736497173.34454,1686.9846901488472
1736497173.3465,1647.8442199724261
1736497173.34845,1609.474311707392
1736497173.3504,1571.765763083769
1736497173.35236,1534.6187456926505
1736497173.35431,1498.5077747078249
1736497173.35626,1463.340027466351
1736497173.3582199,1429.0462635226784
1736497173.36017,1396.0648295249532
1736497173.3621202,1364.2753356451108
1736497173.3640702,1333.71709541897
1736497173.36603,1304.2735740852193
1736497173.36798,1276.2681792803555
1736497173.36993,1249.5620909660845
1736497173.3718898,1224.0302735418784
1736497173.37384,1199.9233940257327
1736497173.37579,1177.1111694771193
1736497173.37775,1155.4264590259913
1736497173.3797,1134.9909519951386
1736497173.38165,1115.598610493253
1736497173.38361,1097.0656063487477
1736497173.38556,1079.5306111788839
1736497173.38751,1062.8731219575116
1736497173.3894699,1046.993049800906
1736497173.39142,1032.0316757319683
1736497173.3933702,1017.9607457662786
1736497173.3953202,1004.8860346038144
1736497173.39728,992.851841414767
1736497173.39923,982.0686625766989
1736497173.40118,972.404835293402
1736497173.4031398,963.6446435358879
1736497173.40509,955.6978256792379
1736497173.40704,948.3552236378046
1736497173.409,941.5487214524082
1736497173.41095,935.3983063332087
1736497173.4129,929.9219772723202
1736497173.41486,925.1463873698251
1736497173.41681,921.1180988026201
1736497173.41876,917.7747206483242
1736497173.4207199,915.0676297875355
1736497173.42267,912.989758541603
1736497173.4246202,911.5253115379875
1736497173.4265702,910.6962091314666
1736497173.42853,910.5250206078832
1736497173.43048,911.0321605299584
1736497173.43243,912.1934030329891
1736497173.4343898,913.9706086000471
1736497173.43634,916.2972412618437
1736497173.43829,919.135240923057
1736497173.44025,922.5069697485591
1736497173.4422,926.4152516433908
1736497173.44415,930.9124672027773
1736497173.44611,936.0568025264861
1736497173.44806,941.7467840000012
1736497173.45001,947.9062757652506
1736497173.4519699,954.4670439931665
1736497173.45392,961.2711290693653
1736497173.4558702,968.3753491026428
1736497173.4578202,975.8790087804298
1736497173.45978,983.9269403948091
1736497173.46173,992.5319224371979
1736497173.46368,1001.7074003312991
1736497173.4656398,1011.3991354002849
1736497173.46759,1021.406272746684
1736497173.46954,1031.6756533402558
1736497173.4715,1042.2486057248793
1736497173.47345,1053.0626567370973
1736497173.4754,1064.2137026588716
1736497173.47736,1075.8000616970473
1736497173.47931,1087.673049777554
1736497173.48126,1099.8156546918801
1736497173.4832199,1112.2140816176181
1736497173.48517,1124.6718227180215
1736497173.4871202,1137.2214051975939
1736497173.4890702,1149.8572239479654
1736497173.49103,1162.6427545878576
1736497173.49298,1175.4457725473692
1736497173.49493,1188.2933655964803
1736497173.4968898,1201.1921869728583
1736497173.49884,1213.9569416681245
1736497173.50079,1226.5918391535772
1736497173.50275,1239.113569438255
1736497173.5047,1251.3570265619946
1736497173.50665,1263.3452351251094
1736497173.50861,1275.0997901193748
1736497173.51056,1286.4898932934407
1736497173.51251,1297.583543872226
1736497173.5144699,1308.441661068887
1736497173.51642,1318.9608037782186
1736497173.5183702,1329.1702086518617
1736497173.5203202,1339.0194825978824
1736497173.52228,1348.5078500601555
1736497173.52423,1357.493284016606
1736497173.52618,1365.9902298684449
1736497173.5281398,1374.0122000551617
1736497173.53009,1381.454928075364
1736497173.53204,1388.3313944428464
1736497173.534,1394.6276474538893
1736497173.53595,1400.2239249106765
1736497173.5379,1405.0962773587116
1736497173.53986,1409.2149645797556
1736497173.54181,1412.5873661553653
1736497173.54376,1415.350440043477
1736497173.5457199,1417.6295240615557
1736497173.54767,1419.5091725398738
1736497173.5496202,1421.0098170313465
1736497173.5515702,1422.0731813178309
1736497173.55353,1422.6418872734798
1736497173.55548,1422.6528969026742
1736497173.55743,1422.076901642952
1736497173.5593898,1420.8886907361973
1736497173.56134,1419.082326941342
1736497173.56329,1416.6432966118457
1736497173.56525,1413.6278997315333
1736497173.5672,1410.1946780799558
1736497173.56915,1406.4588003920899
1736497173.57111,1402.51854120616
1736497173.57306,1398.4107424885285
1736497173.57501,1394.0316937932655
1736497173.5769699,1389.2712607799845
1736497173.57892,1384.0986486535696
1736497173.5808702,1378.5020689918274
1736497173.5828202,1372.5540157111616
1736497173.58478,1366.2942084167119
1736497173.58673,1359.8543469069507
1736497173.58868,1353.23381442022
1736497173.5906398,1346.4022165091542
1736497173.59259,1339.4305091630572
1736497173.59454,1332.289376777167
1736497173.5965,1324.9308722350595
1736497173.59845,1317.4100935025833
1736497173.6004,1309.6724242336215
1736497173.60236,1301.6623430378763
1736497173.60431,1293.5003187638997
1736497173.60626,1285.2190935538974
1736497173.6082199,1276.8505985601232
1736497173.61017,1268.5483151127123
1736497173.6121202,1260.2913247929
1736497173.6140702,1252.0716548216797
1736497173.61603,1243.8367056549152
1736497173.61798,1235.6604352352695
1736497173.61993,1227.5226817796051
1736497173.6218898,1219.4235859897117
1736497173.62384,1211.4837679722448
1736497173.62579,1203.7025367520966
1736497173.62775,1196.0474244094812
1736497173.6297,1188.5800318034528
1736497173.63165,1181.2467000468862
1736497173.63361,1174.0006965079672
1736497173.63556,1166.9666232754346
1736497173.63751,1160.1973279289411
1736497173.6394699,1153.752578953529
1736497173.64142,1147.7797926995602
1736497173.6433702,1142.2299039048628
1736497173.6453202,1137.023962907338
1736497173.64728,1132.0555418823615
1736497173.64923,1127.2945727516997
1736497173.65118,1122.6626097173942
1736497173.6531398,1118.1013800409626
1736497173.65509,1113.6203061064525
1736497173.65704,1109.1678705887919
1736497173.659,1104.7613540976913
1736497173.66095,1100.5304224374493
1736497173.6629,1096.5390256687033
1736497173.66486,1092.8496809154672
1736497173.66681,1089.5118219065946
1736497173.66876,1086.4720557449768
1736497173.6707199,1083.6826288447205
1736497173.67267,1081.137487439612
1736497173.6746202,1078.7966120327462
1736497173.6765702,1076.6410323655036
1736497173.67853,1074.6414196145147
1736497173.68048,1072.7980360338686
1736497173.68243,1071.078917580263
1736497173.6843898,1069.453261687508
1736497173.68634,1067.914071849276
1736497173.68829,1066.430316899137
1736497173.69025,1064.9699393966914
1736497173.6922,1063.521756174541
1736497173.69415,1062.0527654073094
1736497173.69611,1060.533381168663
1736497173.69806,1059.0050819000587
1736497173.70001,1057.517429821932
1736497173.7019699,1056.1215488487917
1736497173.70392,1054.8865437853867
1736497173.7058702,1053.826133369164
1736497173.7078202,1052.9392340484806
1736497173.70978,1052.2208046503072
1736497173.71173,1051.6772069088497
1736497173.71368,1051.3150578157126
1736497173.7156398,1051.1522817989637
1736497173.71759,1051.208941300456
1736497173.71954,1051.4977963919694
1736497173.7215,1051.9845596897057
1736497173.72345,1052.5930648801884
1736497173.7254,1053.2536906800735
1736497173.72736,1053.9011143907455
1736497173.72931,1054.4976575072767
1736497173.73126,1055.0405666781787
1736497173.7332199,1055.526376057326
1736497173.73517,1055.9460118265865
1736497173.7371202,1056.3163175111376
1736497173.7390702,1056.663645957849
1736497173.74103,1057.0165185898632
1736497173.74298,1057.3986092127764
1736497173.74493,1057.8438315821443
1736497173.7468898,1058.3907898002742
1736497173.74884,1059.069898796805
1736497173.75079,1059.9126463833
1736497173.75275,1060.8756388375161
1736497173.7547,1061.8490099657856
1736497173.75665,1062.7365965022032
1736497173.75861,1063.4532388046227
1736497173.76056,1064.0531525720617
1736497173.76251,1064.7004358682984
1736497173.7644699,1065.5618120508373
1736497173.76642,1066.7769845204582
1736497173.7683702,1068.3283259981063
1736497173.7703202,1070.081868312253
1736497173.77228,1071.9112643508029
1736497173.77423,1073.670310400365
1736497173.77618,1075.3396019341083
1736497173.7781398,1076.9642771296658
1736497173.78009,1078.5667629225459
1736497173.78204,1080.184070393756
1736497173.784,1081.7433559567
1736497173.78595,1083.075360119488
1736497173.7879,1084.0337901005357
1736497173.78986,1084.477168791532
1736497173.79181,1084.4041246919999
1736497173.79376,1083.917396314197
1736497173.7957199,1083.1130526719346
1736497173.79767,1082.0966335609965
1736497173.7996202,1080.9183031665584
1736497173.8015702,1079.6031637935391
1736497173.80353,1078.1679759787596
1736497173.80548,1076.657095496598
1736497173.80743,1075.161645618198
1736497173.8093898,1073.818725917939
1736497173.81134,1072.7862011270597
1736497173.81329,1072.1853603936124
1736497173.81525,1071.953951362502
1736497173.8172,1071.9060818158143
1736497173.81915,1071.8501620938093
1736497173.82111,1071.6100894201156
1736497173.82306,1071.1997081527995
1736497173.82501,1070.7521132549184
1736497173.8269699,1070.4018675917218
1736497173.82892,1070.278637610893
1736497173.8308702,1070.3824858429664
1736497173.8328202,1070.6336740653417
1736497173.83478,1070.9526522877911
1736497173.83673,1071.2706876040538
1736497173.83868,1071.7166552579242
1736497173.8406398,1072.551180852649
1736497173.84259,1074.0246055402665
1736497173.84454,1076.3852591206028
1736497173.8465,1079.7573153312778
1736497173.84845,1084.1184260263083
1736497173.8504,1089.492487240731
1736497173.85236,1095.9359828199315
1736497173.85431,1103.5393470752604
1736497173.85626,1112.5773269005394
1736497173.8582199,1123.3543501103522
1736497173.86017,1135.99378235441
1736497173.8621202,1150.5811560689115
1736497173.8640702,1167.017547350123
1736497173.86603,1185.3023838157985
1736497173.86798,1205.166471966547
1736497173.86993,1226.746547761719
1736497173.8718898,1250.305172642028
1736497173.87384,1275.752948899194
1736497173.87579,1303.325497816425
1736497173.87775,1333.1556242249549
1736497173.8797,1364.8196629887545
1736497173.88165,1398.3338557299282
1736497173.88361,1433.7591701642846
1736497173.88556,1470.64650603815
1736497173.88751,1509.1104840286616
1736497173.8894699,1549.293617232895
1736497173.89142,1590.7231210449875
1736497173.8933702,1633.4078225514058
1736497173.8953202,1677.0635877070492
1736497173.89728,1721.644107768402
1736497173.89923,1766.4373413386018
1736497173.90118,1811.5058621549583
1736497173.9031398,1856.9901508307046
1736497173.90509,1902.3562276452108
1736497173.90704,1947.7252019391615
1736497173.909,1993.1274158965748
1736497173.91095,2037.8375026301171
1736497173.9129,2081.8100551855428
1736497173.91486,2124.9930791611787
1736497173.91681,2166.7106950616735
1736497173.91876,2206.9763895892556
1736497173.9207199,2245.7696059693612
1736497173.92267,2282.4989266400994
1736497173.9246202,2317.2349481716233
1736497173.9265702,2349.8856743402134
1736497173.92853,2380.5200763405223
1736497173.93048,2408.745746542344
1736497173.93243,2434.5883410362267
1736497173.9343898,2457.994702008279
1736497173.93634,2478.5691963668037
1736497173.93829,2496.273273408923
1736497173.94025,2511.1042091129298
1736497173.9422,2522.898218364877
1736497173.94415,2531.7218909723993
1736497173.94611,2537.584395116216
1736497173.94806,2540.4326434063964
1736497173.95001,2540.3241631310007
1736497173.9519699,2537.2564601536214
1736497173.95392,2531.2827659148847
1736497173.9558702,2522.4455117800444
1736497173.9578202,2510.8177987343547
1736497173.95978,2496.391343630937
1736497173.96173,2479.3831029810917
1736497173.96368,2459.8183158005245
1736497173.9656398,2437.682762474751
1736497173.96759,2413.2969465971005
1736497173.96954,2386.6728640358688
1736497173.9715,2357.8660944605786
1736497173.97345,2327.435792701432
1736497173.9754,2295.5149443719465
1736497173.97736,2262.1889357739683
1736497173.97931,2227.896906775021
1736497173.98126,2192.464068553719
1736497173.9832199,2155.694811743157
1736497173.98517,2117.960252811314
1736497173.9871202,2079.244415605223
1736497173.9890702,2039.8354753595704
1736497173.99103,1999.8091735749863
1736497173.99298,1959.8332174227558
1736497173.99493,1919.8143623858748
1736497173.9968898,1879.55007370182
1736497173.99884,1839.4335863747178
1736497174.00079,1799.280659410963
1736497174.00275,1759.015574736796
1736497174.0047,1719.2517396895992
1736497174.00665,1680.0002293953112
1736497174.00861,1641.2670984995214
1736497174.01056,1603.5243997366226
1736497174.01251,1566.565206532004
1736497174.0144699,1530.201589164158
1736497174.01642,1494.7943044330207
1736497174.0183702,1460.232632076259
1736497174.0203202,1426.6539848938671
1736497174.02228,1394.0242120275784
1736497174.02423,1362.7892136566084
1736497174.02618,1332.782152122152
1736497174.0281398,1303.7796475680925
1736497174.03009,1275.9844434494644
1736497174.03204,1249.1799362668676
1736497174.034,1223.2440275534584
1736497174.03595,1198.499570451982
1736497174.0379,1174.8795064168153
1736497174.03986,1152.3287515264587
1736497174.04181,1131.0408523199942
1736497174.04376,1110.7989758697963
1736497174.0457199,1091.4089945836079
1736497174.04767,1072.9741970314033
1736497174.0496202,1055.4231886522232
1736497174.0515702,1038.8691409369237
1736497174.05353,1023.3456656603837
1736497174.05548,1009.107231651604
1736497174.05743,996.0383017567126
1736497174.0593898,983.9566718266935
1736497174.06134,972.8550831528761
1736497174.06329,962.5526507922864
1736497174.06525,952.9430242023908
1736497174.0672,944.1042587423464
1736497174.06915,935.969587690764
1736497174.07111,928.48589370703
1736497174.07306,921.7174888105903
1736497174.07501,915.6152675879828
1736497174.0769699,910.1445050715471
1736497174.07892,905.3533427603552
1736497174.0808702,901.238272524076
1736497174.0828202,897.8475810619786
1736497174.08478,895.2172761242623
1736497174.08673,893.4172620726658
1736497174.08868,892.4253116275837
1736497174.0906398,892.2014806790908
1736497174.09259,892.7066508705162
1736497174.09454,893.8974399183367
1736497174.0965,895.7569786826573
1736497174.09845,898.2471259738173
1736497174.1004,901.3561627804777
1736497174.10236,905.0885050645767
1736497174.10431,909.4279775226479
1736497174.10626,914.4390796426546
1736497174.1082199,920.199828941076
1736497174.11017,926.6967474023885
1736497174.1121202,933.9578735633336
1736497174.1140702,941.9527510382915
1736497174.11603,950.6983664123846
1736497174.11798,960.0762768855436
1736497174.11993,970.0745777757967
1736497174.1218898,980.6785898390623
1736497174.12384,991.7145110651261
1736497174.12579,1003.1668607473943
1736497174.12775,1015.0906667479723
1736497174.1297,1027.3983843976516
1736497174.13165,1040.180385225907
1736497174.13361,1053.5302344707927
1736497174.13556,1067.2409384239493
1736497174.13751,1081.2468741527457
1736497174.1394699,1095.4856338601005
1736497174.14142,1109.6890542456517
1736497174.1433702,1123.9011360603026
1736497174.1453202,1138.154317226144
1736497174.14728,1152.5595096275774
1736497174.14923,1167.0042819705002
1736497174.15118,1181.5195995407155
1736497174.1531398,1196.0897047761207
1736497174.15509,1210.4815379114907
1736497174.15704,1224.6816251173273
1736497174.159,1238.7554173656063
1736497174.16095,1252.6074265472241
1736497174.1629,1266.353932749419
1736497174.16486,1280.100494948094
1736497174.16681,1293.6203658557376
1736497174.16876,1306.817924939796
1736497174.1707199,1319.5879649030921
1736497174.17267,1331.6471198188656
1736497174.1746202,1343.0527681628892
1736497174.1765702,1353.8900412167425
1736497174.17853,1364.300901248901
1736497174.18048,1374.264431844439
1736497174.18243,1383.830758816191
1736497174.1843898,1392.9846933960002
1736497174.18634,1401.5750653424398
1736497174.18829,1409.5928429879311
1736497174.19025,1417.1040734197345
1736497174.1922,1424.1175990861598
1736497174.19415,1430.7565756608224
1736497174.19611,1437.126478163888
1736497174.19806,1443.1065346535604
1736497174.20001,1448.5894176205554
1736497174.2019699,1453.4554952078931
1736497174.20392,1457.5207748997552
1736497174.2058702,1460.7637074972731
1736497174.2078202,1463.1932719755232
1736497174.20978,1464.8268746701474
1736497174.21173,1465.6598561986693
1736497174.21368,1465.7234639835456
1736497174.2156398,1465.0398754462176
1736497174.21759,1463.643325205993
1736497174.21954,1461.5627795510682
1736497174.2215,1458.8456959407326
1736497174.22345,1455.6035416842897
1736497174.2254,1451.9086462016176
1736497174.22736,1447.8186754221606
1736497174.22931,1443.3951390996062
1736497174.23126,1438.5982461176386
1736497174.2332199,1433.3804768963034
1736497174.23517,1427.777197757937
1736497174.2371202,1421.7927856739211
1736497174.2390702,1415.4898554243894
1736497174.24103,1408.8959668125801
1736497174.24298,1402.135040946167
1736497174.24493,1395.1866168763636
1736497174.2468898,1387.9955814267546
1736497174.24884,1380.6134289659344
1736497174.25079,1372.9922370550678
1736497174.25275,1365.135747721584
1736497174.2547,1357.2056798048186
1736497174.25665,1349.2469590620788
1736497174.25861,1341.293807355466
1736497174.26056,1333.393639305824
1736497174.26251,1325.4004732703709
1736497174.2644699,1317.1661470781194
1736497174.26642,1308.673866695483
1736497174.2683702,1299.8791490468543
1736497174.2703202,1290.8446120341573
1736497174.27228,1281.584259332747
1736497174.27423,1272.255893165271
1736497174.27618,1262.9219636735982
1736497174.2781398,1253.6737021893025
1736497174.28009,1244.740183350284
1736497174.28204,1236.2048771211428
1736497174.284,1228.0404722322758
1736497174.28595,1220.265997131306
1736497174.2879,1212.7762412326288
1736497174.28986,1205.4763595764966
1736497174.29181,1198.4482278040045
1736497174.29376,1191.7043538906835
1736497174.2957199,1185.264628128301
1736497174.29767,1179.2384612580586
1736497174.2996202,1173.5631822023836
1736497174.3015702,1168.1621506310619
1736497174.30353,1162.9300130293586
1736497174.30548,1157.8464054475608
1736497174.30743,1152.8930747000002
1736497174.3093898,1148.1083739848273
1736497174.31134,1143.6023518041186
1736497174.31329,1139.4097231110884
1736497174.31525,1135.51392486069
1736497174.3172,1131.9197101879272
1736497174.31915,1128.5722619090266
1736497174.32111,1125.4234267395273
1736497174.32306,1122.497370404021
1736497174.32501,1119.785731916165
1736497174.3269699,1117.285142302045
1736497174.32892,1115.0253882239956
1736497174.3308702,1112.9530470880034
1736497174.3328202,1110.9986800160834
1736497174.33478,1109.081991477141
1736497174.33673,1107.1579360157134
1736497174.33868,1105.2326842757716
1736497174.3406398,1103.3658153725135
1736497174.34259,1101.6455960130513
1736497174.34454,1100.1290703037027
1736497174.3465,1098.835310489781
1736497174.34845,1097.775217265981
1736497174.3504,1096.9392834521884
1736497174.35236,1096.3196898971335
1736497174.35431,1095.8849050567362
1736497174.35626,1095.5720656612052
1736497174.3582199,1095.3204598126367
1736497174.36017,1095.0773054493457
1736497174.3621202,1094.8401191812513
1736497174.3640702,1094.6436356814363
1736497174.36603,1094.5227857387224
1736497174.36798,1094.5087320096566
1736497174.36993,1094.564035083006
1736497174.3718898,1094.6080928285983
1736497174.37384,1094.5586638310874
1736497174.37579,1094.3424796880565
1736497174.37775,1093.9787305326854
1736497174.3797,1093.5554935801974
1736497174.38165,1093.156468846641
1736497174.38361,1092.8590982458338
1736497174.38556,1092.6656095470419
1736497174.38751,1092.5209768743823
1736497174.3894699,1092.3702575060374
1736497174.39142,1092.1661557069247
1736497174.3933702,1091.9259177210015
1736497174.3953202,1091.7116944018123
1736497174.39728,1091.5860348757767
1736497174.39923,1091.6075182568507
1736497174.40118,1091.7621498866633
1736497174.4031398,1091.9915518976659
1736497174.40509,1092.232772302819
1736497174.40704,1092.4279241692234
1736497174.409,1092.5378736530881
1736497174.41095,1092.5348092500947
1736497174.4129,1092.393142314995
1736497174.41486,1092.09043262581
1736497174.41681,1091.6801753712464
1736497174.41876,1091.2580434507806
1736497174.4207199,1090.920336180406
1736497174.42267,1090.7627552782044
1736497174.4246202,1090.8067100452417
1736497174.4265702,1091.0301120899858
1736497174.42853,1091.4123256305784
1736497174.43048,1091.9241269729353
1736497174.43243,1092.5124656657
1736497174.4343898,1093.1061958838277
1736497174.43634,1093.6248030512506
1736497174.43829,1094.0025336515928
1736497174.44025,1094.240513679181
1736497174.4422,1094.3823138059606
1736497174.44415,1094.4760034647986
1736497174.44611,1094.5676468186202
1736497174.44806,1094.6895412197512
1736497174.45001,1094.8670112390434
1736497174.4519699,1095.1263393159702
1736497174.45392,1095.4849858032635
1736497174.4558702,1095.906066375706
1736497174.4578202,1096.3130401015528
1736497174.45978,1096.6300611121658
1736497174.46173,1096.7838593263712
1736497174.46368,1096.795020589054
1736497174.4656398,1096.7406259236154
1736497174.46759,1096.6999808446142
1736497174.46954,1096.7461883610133
1736497174.4715,1096.8909454298075
1736497174.47345,1097.1020466323482
1736497174.4754,1097.3486215435555
1736497174.47736,1097.6075988290168
1736497174.47931,1097.9355689122513
1736497174.48126,1098.4478350853512
1736497174.4832199,1099.2643585501014
1736497174.48517,1100.4925987942438
1736497174.4871202,1102.2533094459081
1736497174.4890702,1104.6647736821794
1736497174.49103,1107.8639840312628
1736497174.49298,1111.9370937274225
1736497174.49493,1117.001650624952
1736497174.4968898,1123.1857496831105
1736497174.49884,1130.5232719465887
1736497174.50079,1139.1359079699773
1736497174.50275,1149.1885230053451
1736497174.5047,1160.7013740572825
1736497174.50665,1173.841238270972
1736497174.50861,1188.8051707891111
1736497174.51056,1205.5054573103398
1736497174.51251,1224.0452089945538
1736497174.5144699,1244.562150756486
1736497174.51642,1266.8799536913575
1736497174.5183702,1291.0981082042372
1736497174.5203202,1317.1899775088575
1736497174.52228,1345.2820779482681
1736497174.52423,1375.0697755657768
1736497174.52618,1406.6250827793917
1736497174.5281398,1440.0292293859713
1736497174.53009,1474.8630571021586
1736497174.53204,1511.1902257044696
1736497174.534,1549.112359872861
1736497174.53595,1588.1525687221815
1736497174.5379,1628.3983314212887
1736497174.53986,1669.96380376039
1736497174.54181,1712.291587138111
1736497174.54376,1755.4385270629266
1736497174.5457199,1799.4725535812527
1736497174.54767,1843.7948752086397
1736497174.5496202,1888.400593427896
1736497174.5515702,1933.0041976072728
1736497174.55353,1977.5568040704966
1736497174.55548,2021.34415625953
1736497174.55743,2064.402062573127
1736497174.5593898,2106.806242833964
1736497174.56134,2148.0056690908345
1736497174.56329,2188.0641930932197
1736497174.56525,2226.9477370678705
1736497174.5672,2263.9787237555706
1736497174.56915,2299.0652218199816
1736497174.57111,2332.0964081833645
1736497174.57306,2362.6533291529345
1736497174.57501,2390.956449506176
1736497174.5769699,2417.179107793874
1736497174.57892,2441.0953398683237
1736497174.5808702,2462.727674981878
1736497174.5828202,2481.8539924654965
1736497174.58478,2498.333478424821
1736497174.58673,2511.7952864739605
1736497174.58868,2522.2808372330387
1736497174.5906398,2529.877613155728
1736497174.59259,2534.5691619941254
1736497174.59454,2536.451433827641
1736497174.5965,2535.4835443331494
1736497174.59845,2531.591220239682
1736497174.6004,2524.6922730756655
1736497174.60236,2514.6574400699683
1736497174.60431,2501.693413478431
1736497174.60626,2485.975201747485
1736497174.6082199,2467.6256101896415
1736497174.61017,2447.045415399142
1736497174.6121202,2424.32085182818
1736497174.6140702,2399.603936629374
1736497174.61603,2372.9003802009424
1736497174.61798,2344.6204698003617
1736497174.61993,2314.746807802837
1736497174.6218898,2283.208530803933
1736497174.62384,2250.4062191036523
1736497174.62579,2216.2882045359147
1736497174.62775,2180.816002374868
1736497174.6297,2144.5231156395566
1736497174.63165,2107.4149095117623
1736497174.63361,2069.47188149625
1736497174.63556,2031.212459032682
1736497174.63751,1992.5444398837765
1736497174.6394699,1953.3714583460828
1736497174.64142,1914.186182185731
1736497174.6433702,1874.9128431656786
1736497174.6453202,1835.6995439105726
1736497174.64728,1796.4853609599695
1736497174.64923,1757.793249816367
1736497174.65118,1719.4669350727274
1736497174.6531398,1681.2962685977454
1736497174.65509,1643.6356802547416
1736497174.65704,1606.2929368250022
1736497174.659,1569.2081169369235
1736497174.66095,1532.9720576121754
1736497174.6629,1497.6201053707632
1736497174.66486,1463.1858196339224
1736497174.66681,1430.0452344927114
1736497174.66876,1397.9233043549227
1736497174.6707199,1366.5675320346772
1736497174.67267,1336.203405289788
1736497174.6746202,1306.7187771234333
1736497174.6765702,1278.2616661072752
1736497174.67853,1250.837205756712
1736497174.68048,1224.8499194191659
1736497174.68243,1200.144657246729
1736497174.6843898,1176.4943008198024
1736497174.68634,1154.0179879163009
1736497174.68829,1132.4939420254962
1736497174.69025,1111.798560005032
1736497174.6922,1092.1758431928877
1736497174.69415,1073.5586249410171
1736497174.69611,1055.8910740477938
1736497174.69806,1039.305260539495
1736497174.70001,1023.6072311929175
1736497174.7019699,1008.622121029382
1736497174.70392,994.4089517315508
1736497174.7058702,980.9428488559681
1736497174.7078202,968.3755326721717
1736497174.70978,956.8005664077513
1736497174.71173,946.4733161396157
1736497174.71368,937.3416879612005
1736497174.7156398,929.2898047974932
1736497174.71759,922.3169261574643
1736497174.71954,916.3040068605749
1736497174.7215,911.1741211115907
1736497174.72345,906.9423734625134
1736497174.7254,903.5453148410047
1736497174.72736,900.9352297469294
1736497174.72931,899.0933152152227
1736497174.73126,897.9530615001543
1736497174.7332199,897.4623057981064
1736497174.73517,897.5752900293843
1736497174.7371202,898.2475498065951
1736497174.7390702,899.4449329418236
1736497174.74103,901.1432670089149
1736497174.74298,903.2956087854991
1736497174.74493,905.9277236775442
1736497174.7468898,909.1074446205803
1736497174.74884,912.8548939718297
1736497174.75079,917.2307754206082
1736497174.75275,922.260909933753
1736497174.7547,927.8617226410216
1736497174.75665,934.0229282956869
1736497174.75861,940.7485400385935
1736497174.76056,947.9641370925198
1736497174.76251,955.7142113345982
1736497174.7644699,964.0535070091698
1736497174.76642,972.9097933548543
1736497174.7683702,982.3251204518109
1736497174.7703202,992.2910317775337
1736497174.77228,1002.8564235967207
1736497174.77423,1013.9071541322836
1736497174.77618,1025.4563615355382
1736497174.7781398,1037.507418004793
1736497174.78009,1049.8833031641218
1736497174.78204,1062.5830320944092
1736497174.784,1075.629939771362
1736497174.78595,1088.8585541917857
1736497174.7879,1102.2982576911631
1736497174.78986,1115.9853803760366
1736497174.79181,1129.758219961525
1736497174.79376,1143.6725912378267
1736497174.7957199,1157.7856409093497
1736497174.79767,1171.9355238766755
1736497174.7996202,1186.0830660967442
1736497174.8015702,1200.054153598623
1736497174.80353,1213.7459496879803
1736497174.80548,1226.864461940964
1736497174.80743,1239.5035199186968
1736497174.8093898,1251.8688765552315
1736497174.81134,1263.9860915567235
1736497174.81329,1276.0510446359115
1736497174.81525,1288.1363809522613
1736497174.8172,1300.0492263297926
1736497174.81915,1311.7765215480874
1736497174.82111,1323.3033909509263
1736497174.82306,1334.4450032910343
1736497174.82501,1345.1983047070873
1736497174.8269699,1355.5510995888446
1736497174.82892,1365.3430525149336
1736497174.8308702,1374.6412987375688
1736497174.8328202,1383.5031888003223
1736497174.83478,1392.032040426603
1736497174.83673,1400.1951543140171
1736497174.83868,1407.9876811730505
1736497174.8406398,1415.3299835858759
1736497174.84259,1422.0330684763023
1736497174.84454,1428.0223311883235
1736497174.8465,1433.2741671146111
1736497174.84845,1437.728630046632
1736497174.8504,1441.4070431596535
1736497174.85236,1444.3193785437284
1736497174.85431,1446.4795141328564
1736497174.85626,1447.9783625242555
1736497174.8582199,1448.8937078272365
1736497174.86017,1449.2837643519995
1736497174.8621202,1449.1306103547977
1736497174.8640702,1448.35018531643
1736497174.86603,1446.8479151262597
1736497174.86798,1444.5633058065332
1736497174.86993,1441.5368134675614
1736497174.8718898,1437.8753053224766
1736497174.87384,1433.7432110282268
1736497174.87579,1429.2458438118672
1736497174.87775,1424.3969966040083
1736497174.8797,1419.2300249588588
1736497174.88165,1413.7056524460945
1736497174.88361,1407.7811015749085
1736497174.88556,1401.5577401262028
1736497174.88751,1395.0813574916476
1736497174.8894699,1388.393980462414
1736497174.89142,1381.6370733626372
1736497174.8933702,1374.836021930063
1736497174.8953202,1368.0415799330788
1736497174.89728,1361.2682571933399
1736497174.89923,1354.624211450163
1736497174.90118,1348.0130505637544
1736497174.9031398,1341.2700797646592
1736497174.90509,1334.3293278593212
1736497174.90704,1327.0400232330662
1736497174.909,1319.3959819904878
1736497174.91095,1311.6084949259612
1736497174.9129,1303.7763950114395
1736497174.91486,1295.986847725459
1736497174.91681,1288.3298252228387
1736497174.91876,1280.6988820084068
1736497174.9207199,1272.9876725158929
1736497174.92267,1265.2111615796641
1736497174.9246202,1257.3406783877995
1736497174.9265702,1249.4366658739234
1736497174.92853,1241.518203421669
1736497174.93048,1233.7229411917456
1736497174.93243,1226.0580810443264
1736497174.9343898,1218.5256623976888
1736497174.93634,1211.2390946185676
1736497174.93829,1204.198805476271
1736497174.94025,1197.3792749849374
1736497174.9422,1190.8387756484092
1736497174.94415,1184.5326171754682
1736497174.94611,1178.4207410341437
1736497174.94806,1172.563957553706
1736497174.95001,1166.9339622968816
1736497174.9519699,1161.5078531255442
1736497174.95392,1156.3427381312042
1736497174.9558702,1151.4059256849343
1736497174.9578202,1146.6892450448843
1736497174.95978,1142.160536066112
1736497174.96173,1137.851214155422
1736497174.96368,1133.6730803764187
1736497174.9656398,1129.5061130674185
1736497174.96759,1125.2911788563015
1736497174.96954,1120.9198169037932
1736497174.9715,1116.4137481299003
1736497174.97345,1111.95174084519
1736497174.9754,1107.6463298931426
1736497174.97736,1103.60488494583
1736497174.97931,1099.903285466507
1736497174.98126,1096.4933649320833
1736497174.9832199,1093.3322251602049
1736497174.98517,1090.42680605265
1736497174.9871202,1087.7753460833487
1736497174.9890702,1085.4195904248809
1736497174.99103,1083.3915582712393
1736497174.99298,1081.7512653999077
1736497174.99493,1080.503795417235
1736497174.9968898,1079.6463340767682
1736497174.99884,1079.1876008917593
1736497175.00079,1079.1174109038288
1736497175.00275,1079.3693977696391
1736497175.0047,1079.8305681572187
1736497175.00665,1080.3907013240557
1736497175.00861,1080.9485149520565
1736497175.01056,1081.4756590887032
1736497175.01251,1082.0062312120624
1736497175.0144699,1082.5752930711733
1736497175.01642,1083.2070569462671
1736497175.0183702,1083.9060235844909
1736497175.0203202,1084.6551023870445
1736497175.02228,1085.4410977469756
1736497175.02423,1086.2413873236515
1736497175.02618,1087.0757893854277
1736497175.0281398,1087.9853824971628
1736497175.03009,1088.9980462159754
1736497175.03204,1090.149929654637
1736497175.034,1091.42419205332
1736497175.03595,1092.7475229828356
1736497175.0379,1094.0650338895105
1736497175.03986,1095.3248885743642
1736497175.04181,1096.4918181578785
1736497175.04376,1097.5737330039049
1736497175.0457199,1098.5771020377824
1736497175.04767,1099.492896821366
1736497175.0496202,1100.3189930092087
1736497175.0515702,1101.0421830759503
1736497175.05353,1101.6521999032802
1736497175.05548,1102.1295566780127
1736497175.05743,1102.4613230914626
1736497175.0593898,1102.6296820419811
1736497175.06134,1102.6146135068732
1736497175.06329,1102.4040543376884
1736497175.06525,1102.0420148461712
1736497175.0672,1101.6178673944598
1736497175.06915,1101.2162159020008
1736497175.07111,1100.9154089755702
1736497175.07306,1100.719085191577
1736497175.07501,1100.5738658754776
1736497175.0769699,1100.4265063179744
1736497175.07892,1100.2309172381101
1736497175.0808702,1100.0003272106392
1736497175.0828202,1099.7893742957644
1736497175.08478,1099.6529353507055
1736497175.08673,1099.6405740658302
1736497175.08868,1099.7108596172814
1736497175.0906398,1099.764667572066
1736497175.09259,1099.7007882457133
1736497175.09454,1099.4242794679371
1736497175.0965,1098.895586269916
1736497175.09845,1098.1228434406016
1736497175.1004,1097.1075839526682
1736497175.10236,1095.8470276064597
1736497175.10431,1094.366921909757
1736497175.10626,1092.6798876387713
1736497175.1082199,1090.7946313916323
1736497175.11017,1088.7536486681897
1736497175.1121202,1086.6324083023615
1736497175.1140702,1084.5566021171435
1736497175.11603,1082.6429536364144
1736497175.11798,1081.0322466088755
1736497175.11993,1079.7786299862746
1736497175.1218898,1078.905230278641
1736497175.12384,1078.4466399813402
1736497175.12579,1078.4307722586093
1736497175.12775,1078.9836845635477
1736497175.1297,1080.2809798284745
1736497175.13165,1082.5052628017258
1736497175.13361,1085.852653298953
1736497175.13556,1090.3994021504382
1736497175.13751,1096.2261273843076
1736497175.1394699,1103.4380266488233
1736497175.14142,1112.0311535439278
1736497175.1433702,1122.1309907974282
1736497175.1453202,1133.842524889434
1736497175.14728,1147.3464733670976
1736497175.14923,1162.613547381062
1736497175.15118,1179.7783999263731
1736497175.1531398,1198.9914683641769
1736497175.15509,1220.1132485608646
1736497175.15704,1243.274951853858
1736497175.159,1268.6102554773076
1736497175.16095,1295.8357891694213
1736497175.1629,1325.0417810345816
1736497175.16486,1356.3598233247017
1736497175.16681,1389.4088449686883
1736497175.16876,1424.264945137368
1736497175.1707199,1461.0364863391776
1736497175.17267,1499.2761456181997
1736497175.1746202,1539.0766920938167
1736497175.1765702,1580.329649052014
1736497175.17853,1623.157779414184
1736497175.18048,1667.028684353169
1736497175.18243,1711.9769832992135
1736497175.1843898,1758.0113476172223
1736497175.18634,1804.453775040901
1736497175.18829,1851.2995184595354
1736497175.19025,1898.5998326577558
1736497175.1922,1945.7117669066408
1736497175.19415,1992.7008186600413
1736497175.19611,2039.6304399342362
1736497175.19806,2085.7826960922994
1736497175.20001,2131.119842501841
1736497175.2019699,2175.5813019217308
1736497175.20392,2218.4513505171694
1736497175.2058702,2259.786525516761
1736497175.2078202,2299.468430665
1736497175.20978,2337.5806177210147
1736497175.21173,2373.630798805966
1736497175.21368,2407.647261370408
1736497175.2156398,2439.5808036241615
1736497175.21759,2468.9122607999907
1736497175.21954,2495.6040994476784
1736497175.2215,2519.6717614998634
1736497175.22345,2540.835891993405
1736497175.2254,2559.1854435509536
1736497175.22736,2574.750364737092
1736497175.22931,2587.2792791817246
1736497175.23126,2596.7342878889663
1736497175.2332199,2603.013118258376
1736497175.23517,2605.9396982164117
1736497175.2371202,2605.59055127148
1736497175.2390702,2602.102699667624
1736497175.24103,2595.5751609766053
1736497175.24298,2586.2110137793225
1736497175.24493,2574.106487995495
1736497175.2468898,2559.292067321338
1736497175.24884,2542.0243286979025
1736497175.25079,2522.3503491266297
1736497175.25275,2500.258358502677
1736497175.2547,2476.0723236077965
1736497175.25665,2449.790839102821
1736497175.25861,2421.370413339014
1736497175.26056,2391.250739632046
1736497175.26251,2359.468035299638
1736497175.2644699,2326.028965720303
1736497175.26642,2291.438701741255
1736497175.2683702,2255.6276870671923
1736497175.2703202,2218.6545572663404
1736497175.27228,2180.370344420969
1736497175.27423,2141.2159146954655
1736497175.27618,2101.1793592681656
1736497175.2781398,2060.3098970830583
1736497175.28009,2019.2668785232252
1736497175.28204,1978.102527985781
1736497175.284,1936.7178829241575
1736497175.28595,1895.5506755755773
1736497175.2879,1854.417722392503
1736497175.28986,1813.1375529156646
1736497175.29181,1772.2329820342923
1736497175.29376,1731.640618673019
1736497175.2957199,1691.3092126260788
1736497175.29767,1651.787818851411
1736497175.2996202,1612.9862969232527
1736497175.3015702,1575.0118514276714
1736497175.30353,1537.7737854360166
1736497175.30548,1501.7348540388462
1736497175.30743,1466.719504590213
1736497175.3093898,1432.5202135828542
1736497175.31134,1399.433711876116
1736497175.31329,1367.2629274196004
1736497175.31525,1335.916020476466
1736497175.3172,1305.8372312967037
1736497175.31915,1276.9997945664131
1736497175.32111,1249.3889694280497
1736497175.32306,1223.295765947625
1736497175.32501,1198.5093134364458
1736497175.3269699,1174.8470712391804
1736497175.32892,1152.4762422474844
1736497175.3308702,1131.1919677878022
1736497175.3328202,1110.909784834044
1736497175.33478,1091.4422466541635
1736497175.33673,1072.9021921233561
1736497175.33868,1055.2157785591337
1736497175.3406398,1038.397702515908
1736497175.34259,1022.7115965083921
1736497175.34454,1008.163235078674
1736497175.3465,994.6653056228847
1736497175.34845,982.2592055769114
1736497175.3504,970.7807370118635
1736497175.35236,960.0880498335649
1736497175.35431,950.2598519770086
1736497175.35626,941.2478229646943
1736497175.3582199,933.0220762337585
1736497175.36017,925.6724475898608
1736497175.3621202,919.14692052472
1736497175.3640702,913.428380142073
1736497175.36603,908.4743126795166
1736497175.36798,904.3161955756726
1736497175.36993,900.9219722153321
1736497175.3718898,898.2832894549088
1736497175.37384,896.4293325610338
1736497175.37579,895.3454501513861
1736497175.37775,894.9945442868309
1736497175.3797,895.3186570017215
1736497175.38165,896.2526139536435
1736497175.38361,897.7484317203266
1736497175.38556,899.7898060027601
1736497175.38751,902.418895328828
1736497175.3894699,905.6901720048575
1736497175.39142,909.605305631055
1736497175.3933702,914.1850482779398
1736497175.3953202,919.4146689037954
1736497175.39728,925.31172133629
1736497175.39923,931.801679785956
1736497175.40118,938.8763479995743
1736497175.4031398,946.525594754851
1736497175.40509,954.6241386434175
1736497175.40704,963.1630057967043
1736497175.409,972.2174832317062
1736497175.41095,981.7729677653134
1736497175.4129,991.9496378357911
1736497175.41486,1002.8685635133464
1736497175.41681,1014.328178417517
1736497175.41876,1026.1918653263797
1736497175.4207199,1038.3280186168406
1736497175.42267,1050.4389208491286
1736497175.4246202,1062.6095035328854
1736497175.4265702,1074.992091280564
1736497175.42853,1087.81094774333
1736497175.43048,1101.0810822400701
1736497175.43243,1114.821481012639
1736497175.4343898,1128.9357343739189
1736497175.43634,1143.1145731894112
1736497175.43829,1157.2615184146973
1736497175.44025,1171.3666095849471
1736497175.4422,1185.2610565999419
1736497175.44415,1198.9885125441258
1736497175.44611,1212.592127254114
1736497175.44806,1225.9213102858305
1736497175.45001,1239.0439484864323
1736497175.4519699,1252.0222841874142
1736497175.45392,1264.7207286035152
1736497175.4558702,1277.1498774175752
1736497175.4578202,1289.2173383021766
1736497175.45978,1300.8916610411313
1736497175.46173,1311.9709451196072
1736497175.46368,1322.4883704240956
1736497175.4656398,1332.505284578722
1736497175.46759,1341.9363765258106
1736497175.46954,1350.8451794764921
1736497175.4715,1359.3013333465228
1736497175.47345,1367.2566690409458
1736497175.4754,1374.790760741435
1736497175.47736,1381.9693921353742
1736497175.47931,1388.6760283724693
1736497175.48126,1394.8571146453876
1736497175.4832199,1400.4467813598308
1736497175.48517,1405.3074441929907
1736497175.4871202,1409.5156734281857
1736497175.4890702,1413.2019183891355
1736497175.49103,1416.5154931744037
1736497175.49298,1419.5426232070622
1736497175.49493,1422.247326847759
1736497175.4968898,1424.4717163852652
1736497175.49884,1426.0235203620568
1736497175.50079,1426.7596285186087
1736497175.50275,1426.69599539608
1736497175.5047,1425.966333851926
1736497175.50665,1424.7067879251608
1736497175.50861,1423.038223337385
1736497175.51056,1421.0560171317065
1736497175.51251,1418.7961119024237
1736497175.5144699,1416.2884367150475
1736497175.51642,1413.5942407258765
1736497175.5183702,1410.6539838621718
1736497175.5203202,1407.3659671571882
1736497175.52228,1403.6063947953564
1736497175.52423,1399.3216480927815
1736497175.52618,1394.5568301631874
1736497175.5281398,1389.4502501237769
1736497175.53009,1384.219016964245
1736497175.53204,1378.9907925746616
1736497175.534,1373.7093148571844
1736497175.53595,1368.2782235391346
1736497175.5379,1362.5208065355464
1736497175.53986,1356.2682519579314
1736497175.54181,1349.6293248291772
1736497175.54376,1342.7369243497894
1736497175.5457199,1335.7217277869156
1736497175.54767,1328.8070937636442
1736497175.5496202,1321.9539770864396
1736497175.5515702,1315.0573287282932
1736497175.55353,1307.9718360895645
1736497175.55548,1300.667400784144
1736497175.55743,1293.1082612762568
1736497175.5593898,1285.3202363711964
1736497175.56134,1277.4465362588503
1736497175.56329,1269.5128390900313
1736497175.56525,1261.4914753204712
1736497175.5672,1253.443522805896
1736497175.56915,1245.3096681273428
1736497175.57111,1237.036116907907
1736497175.57306,1228.7940708232038
1736497175.57501,1220.6921799801003
1736497175.5769699,1212.8440660624287
1736497175.57892,1205.4677617630257
1736497175.5808702,1198.5086103068766
1736497175.5828202,1191.8530857428507
1736497175.58478,1185.3511203872142
1736497175.58673,1178.9577604118538
1736497175.58868,1172.6238794183548
1736497175.5906398,1166.3639229233972
1736497175.59259,1160.2862340008544
1736497175.59454,1154.401783410423
1736497175.5965,1148.6569760307032
1736497175.59845,1143.0409094392292
1736497175.6004,1137.4558628475622
1736497175.60236,1131.8118867473781
1736497175.60431,1126.1984758497315
1736497175.60626,1120.679728445791
1736497175.6082199,1115.3234258607463
1736497175.61017,1110.2710123531392
1736497175.6121202,1105.506865230036
1736497175.6140702,1100.9943614894191
1736497175.61603,1096.673135969106
1736497175.61798,1092.5522673858766
1736497175.61993,1088.6339173178892
1736497175.6218898,1084.9632713626227
1736497175.62384,1081.640241453504
1736497175.62579,1078.7065849711282
1736497175.62775,1076.168580026521
1736497175.6297,1074.0422781106645
1736497175.63165,1072.3042857093785
1736497175.63361,1070.934862140947
1736497175.63556,1069.886807640957
1736497175.63751,1069.0600706681146
1736497175.6394699,1068.3586716170848
1736497175.64142,1067.7027289017694
1736497175.6433702,1067.0762384601092
1736497175.6453202,1066.516432791792
1736497175.64728,1066.0592362241614
1736497175.64923,1065.7427773133545
1736497175.65118,1065.5429934859349
1736497175.6531398,1065.4013423693889
1736497175.65509,1065.2604353126414
1736497175.65704,1065.066516984257
1736497175.659,1064.8324950862184
1736497175.66095,1064.6195116700164
1736497175.6629,1064.48580511234
1736497175.66486,1064.4863197575776
1736497175.66681,1064.6176914901796
1736497175.66876,1064.8380192352386
1736497175.6707199,1065.1065106768704
1736497175.67267,1065.375620479162
1736497175.6746202,1065.571612061569
1736497175.6765702,1065.599316239473
1736497175.67853,1065.3612834200785
1736497175.68048,1064.7723833830853
1736497175.68243,1063.8460230991102
1736497175.6843898,1062.6565523101428
1736497175.68634,1061.2979942447319
1736497175.68829,1059.845395289561
1736497175.69025,1058.3479595457325
1736497175.6922,1056.8622625080607
1736497175.69415,1055.4220829534202
1736497175.69611,1054.064571352801
1736497175.69806,1052.8786048461857
1736497175.70001,1051.9520584674005
1736497175.7019699,1051.3785537306821
1736497175.70392,1051.2480413475696
1736497175.7058702,1051.5005610248706
1736497175.7078202,1051.9870309886876
1736497175.70978,1052.5596059342333
1736497175.71173,1053.076194602426
1736497175.71368,1053.583850479264
1736497175.7156398,1054.2502020390423
1736497175.71759,1055.2352201532942
1736497175.71954,1056.6914081918314
1736497175.7215,1058.5878219506246
1736497175.72345,1060.736745775984
1736497175.7254,1062.9763418875227
1736497175.72736,1065.1567908419686
1736497175.72931,1067.2126109729127
1736497175.73126,1069.1897584969952
1736497175.7332199,1071.1337314383466
1736497175.73517,1073.05756806357
1736497175.7371202,1074.9604921655905
1736497175.7390702,1076.8027060781378
1736497175.74103,1078.5530166876688
1736497175.74298,1080.155159862158
1736497175.74493,1081.5940296163799
1736497175.7468898,1082.8609784419543
1736497175.74884,1083.9291011971936
1736497175.75079,1084.7893913370988
1736497175.75275,1085.4144930482257
1736497175.7547,1085.7584802540607
1736497175.75665,1085.785403808102
1736497175.75861,1085.4598691977237
1736497175.76056,1084.835139694781
1736497175.76251,1084.0146364285936
1736497175.7644699,1083.0988464728773
1736497175.76642,1082.1988379298784
1736497175.7683702,1081.3679778246028
1736497175.7703202,1080.6354571697814
1736497175.77228,1080.0269667307182
1736497175.77423,1079.5751795094277
1736497175.77618,1079.2792717002337
1736497175.7781398,1079.1254972463078
1736497175.78009,1079.1017397985283
1736497175.78204,1079.2016072471004
1736497175.784,1079.5225551008832
1736497175.78595,1080.2236299541594
1736497175.7879,1081.4685098608422
1736497175.78986,1083.4329437713832
1736497175.79181,1086.2714290145395
1736497175.79376,1090.1726044344668
1736497175.7957199,1095.3463729718264
1736497175.79767,1101.917563573655
1736497175.7996202,1110.0252372478585
1736497175.8015702,1119.7429094255797
1736497175.80353,1131.207785339357
1736497175.80548,1144.3802029974493
1736497175.80743,1159.3828783105766
1736497175.8093898,1176.3722029327157
1736497175.81134,1195.2481371650676
1736497175.81329,1216.1496047050232
1736497175.81525,1239.2248977314691
1736497175.8172,1264.2446647000472
1736497175.81915,1291.3192426987055
1736497175.82111,1320.5997969568366
1736497175.82306,1351.7346439303494
1736497175.82501,1384.7837706528883
1736497175.8269699,1419.8415838081783
1736497175.82892,1456.47517824522
1736497175.8308702,1494.8018910938001
1736497175.8328202,1534.7711410327297
1736497175.83478,1576.5589903065363
1736497175.83673,1619.7011693506006
1736497175.83868,1664.2785216334935
1736497175.8406398,1710.349485760968
1736497175.84259,1757.2844076647298
1736497175.84454,1805.1214992366556
1736497175.8465,1853.9106344029085
1736497175.84845,1902.9480672815162
1736497175.8504,1952.259143487732
1736497175.85236,2001.8842113982512
1736497175.85431,2051.1435980729716
1736497175.85626,2100.1460891451675
1736497175.8582199,2148.9897632183506
1736497175.86017,2197.030778433136
1736497175.8621202,2244.222506959347
1736497175.8640702,2290.1627464524254
1736497175.86603,2334.682319690147
1736497175.86798,2376.957523723259
1736497175.86993,2417.01007129521
1736497175.8718898,2454.9332059481303
1736497175.87384,2490.2645104977296
1736497175.87579,2523.09651266506
1736497175.87775,2553.412336860868
1736497175.8797,2580.6956143116113
1736497175.88165,2604.890496429003
1736497175.88361,2625.8942159057115
1736497175.88556,2643.441200848365
1736497175.88751,2657.6959559677966
1736497175.8894699,2668.755914726287
1736497175.89142,2676.560114718941
1736497175.8933702,2681.207438531997
1736497175.8953202,2682.7227949326343
1736497175.89728,2681.117072804027
1736497175.89923,2676.433019318563
1736497175.90118,2668.705980329743
1736497175.9031398,2657.9162276979882
1736497175.90509,2644.211365008484
1736497175.90704,2627.59838202287
1736497175.909,2608.1223963764937
1736497175.91095,2586.1954450113126
1736497175.9129,2561.9451512819714
1736497175.91486,2535.4415026765732
1736497175.91681,2507.0759332759526
1736497175.91876,2476.7787872432286
1736497175.9207199,2444.443655886068
1736497175.92267,2410.4562443382765
1736497175.9246202,2374.759680003526
1736497175.9265702,2337.494342068457
1736497175.92853,2298.590661964414
1736497175.93048,2258.5747292876354
1736497175.93243,2217.4576175646985
1736497175.9343898,2175.271335788945
1736497175.93634,2132.6774373995827
1736497175.93829,2089.7136816377756
1736497175.94025,2046.2833520152374
1736497175.9422,2002.872477303661
1736497175.94415,1959.3162716803868
1736497175.94611,1915.4514386299247
1736497175.94806,1871.9029912783421
1736497175.95001,1828.6990253387412
1736497175.9519699,1785.8812505836813
1736497175.95392,1744.1187577872763
1736497175.9558702,1703.2818726170383
1736497175.9578202,1663.3714345630465
1736497175.95978,1624.1782388925749
1736497175.96173,1586.0867619524277
1736497175.96368,1548.9467738462886
1736497175.9656398,1512.6633599618888
1736497175.96759,1477.678585830543
1736497175.96954,1443.8949658462707
1736497175.9715,1411.1483892585313
1736497175.97345,1379.7149524365877
1736497175.9754,1349.3770882099736
1736497175.97736,1319.9445551874567
1736497175.97931,1291.780385796968
1736497175.98126,1264.8625526165179
1736497175.9832199,1239.1989347147744
1736497175.98517,1215.1644828641713
1736497175.9871202,1192.5765347475265
1736497175.9890702,1171.2815989708668
1736497175.99103,1151.0173351941635
1736497175.99298,1131.8340095957938
1736497175.99493,1113.5945294923579
1736497175.9968898,1096.2598239204265
1736497175.99884,1080.047331406369
1736497176.00079,1064.9117423762616
1736497176.00275,1050.7436244581063
1736497176.0047,1037.5924797251253
1736497176.00665,1025.2927346912816
1736497176.00861,1013.7015738779247
1736497176.01056,1002.9350811774817
1736497176.01251,992.984617847345
1736497176.0144699,983.8603691806677
1736497176.01642,975.6983193837799
1736497176.0183702,968.3898043023999
1736497176.0203202,961.8070157837761
1736497176.02228,955.7894385236692
1736497176.02423,950.2749455474587
1736497176.02618,945.2217693900521
1736497176.0281398,940.6720150238142
1736497176.03009,936.735593704906
1736497176.03204,933.4482507004044
1736497176.034,930.7858456954328
1736497176.03595,928.7159875609715
1736497176.0379,927.164307797134
1736497176.03986,926.0746403567623
1736497176.04181,925.4999923197954
1736497176.04376,925.5369647224899
1736497176.0457199,926.2957062502393
1736497176.04767,927.8645500681679
1736497176.0496202,930.2334475343387
1736497176.0515702,933.3180856291408
1736497176.05353,937.0537735320045
1736497176.05548,941.3233489079474
1736497176.05743,946.1303349071543
1736497176.0593898,951.5332738430038
1736497176.06134,957.5100680246301
1736497176.06329,964.11238534593
1736497176.06525,971.3666610050753
1736497176.0672,979.1622323476186
1736497176.06915,987.4951694527418
1736497176.07111,996.3744268570364
1736497176.07306,1005.6831999822156
1736497176.07501,1015.4473266319991
1736497176.0769699,1025.7008747168154
1736497176.07892,1036.3234091597667
1736497176.0808702,1047.3491033969592
1736497176.0828202,1058.758537797094
1736497176.08478,1070.596263379301
1736497176.08673,1082.7255636513937
1736497176.08868,1095.163753988645
1736497176.0906398,1107.9194184509688
1736497176.09259,1120.8108180530678
1736497176.09454,1133.8398099003603
1736497176.0965,1146.989237805458
1736497176.09845,1160.0258176358702
1736497176.1004,1172.913089082142
1736497176.10236,1185.6203480667882
1736497176.10431,1198.008269359017
1736497176.10626,1210.1893751589628
1736497176.1082199,1222.2714861108889
1736497176.11017,1234.1794126230718
1736497176.1121202,1245.9873113083497
1736497176.1140702,1257.6824870608127
1736497176.11603,1269.313884149267
1736497176.11798,1280.75187796777
1736497176.11993,1292.0008031417249
1736497176.1218898,1303.0340713322605
1736497176.12384,1313.6612644230063
1736497176.12579,1323.8610048650255
1736497176.12775,1333.6894770227145
1736497176.1297,1343.1096099055844
1736497176.13165,1352.23311069532
1736497176.13361,1361.1589912551601
1736497176.13556,1369.7575133481375
1736497176.13751,1377.975575561699
1736497176.1394699,1385.7502432550987
1736497176.14142,1392.9081989054769
1736497176.1433702,1399.4552682404608
1736497176.1453202,1405.3948472854627
1736497176.14728,1410.758744311122
1736497176.14923,1415.5023794907847
1736497176.15118,1419.701429449441
1736497176.1531398,1423.4464722694956
1736497176.15509,1426.7742562502933
1736497176.15704,1429.7692917994912
1736497176.159,1432.414343374522
1736497176.16095,1434.5896425359242
1736497176.1629,1436.215245515085
1736497176.16486,1437.2095248562164
1736497176.16681,1437.587067207761
1736497176.16876,1437.4515905824624
1736497176.1707199,1436.897651888416
1736497176.17267,1436.0203215434865
1736497176.1746202,1434.797408014696
1736497176.1765702,1433.1364932160827
1736497176.17853,1430.9309519457668
1736497176.18048,1428.112990857757
1736497176.18243,1424.6391850694476
1736497176.1843898,1420.4902128537524
1736497176.18634,1415.7105173951963
1736497176.18829,1410.2926633773761
1736497176.19025,1404.2975209972542
1736497176.1922,1397.9323119884532
1736497176.19415,1391.316152736552
1736497176.19611,1384.5530458441522
1736497176.19806,1377.7415141938475
1736497176.20001,1370.804345457279
1736497176.2019699,1363.6613264732757
1736497176.20392,1356.3458081101337
1736497176.2058702,1348.8607852810383
1736497176.2078202,1341.2981006875732
1736497176.20978,1333.7100991490374
1736497176.21173,1326.2542407922485
1736497176.21368,1318.8589376565958
1736497176.2156398,1311.3766696708637
1736497176.21759,1303.7694117060605
1736497176.21954,1295.899690760315
1736497176.2215,1287.7321771985478
1736497176.22345,1279.4278271066519
1736497176.2254,1271.0269195862538
1736497176.22736,1262.5628203708686
1736497176.22931,1254.1520323441136
1736497176.23126,1245.7504189995207
1736497176.2332199,1237.3145045445203
1736497176.23517,1228.9264265499537
1736497176.2371202,1220.5338788630766
1736497176.2390702,1212.1249715545155
1736497176.24103,1203.6422407558805
1736497176.24298,1195.1630027991691
1736497176.24493,1186.719605869477
1736497176.2468898,1178.3999945229898
1736497176.24884,1170.4165357805707
1736497176.25079,1162.8483805498754
1736497176.25275,1155.6510456381818
1736497176.2547,1148.8028477312396
1736497176.25665,1142.172343964834
1736497176.25861,1135.6384524594523
1736497176.26056,1129.2601355333613
1736497176.26251,1123.0488501908385
1736497176.2644699,1117.0211584706321
1736497176.26642,1111.279956890408
1736497176.2683702,1105.7949863840706
1736497176.2703202,1100.541079379141
1736497176.27228,1095.4657001450887
1736497176.27423,1090.5934764535411
1736497176.27618,1085.8861083563954
1736497176.2781398,1081.317588188357
1736497176.28009,1076.929488712524
1736497176.28204,1072.6950972983186
1736497176.284,1068.5752929568057
1736497176.28595,1064.5836425878672
1736497176.2879,1060.6717035813522
1736497176.28986,1056.7957547541216
1736497176.29181,1053.0138754110299
1736497176.29376,1049.352526048914
1736497176.2957199,1045.8415647176755
1736497176.29767,1042.5628407135093
1736497176.2996202,1039.5417284375328
1736497176.3015702,1036.8207245965968
1736497176.30353,1034.43016416896
1736497176.30548,1032.4335039129169
1736497176.30743,1030.8298008379968
1736497176.3093898,1029.6075131546388
1736497176.31134,1028.771996388306
1736497176.31329,1028.3060582794892
1736497176.31525,1028.1556271657757
1736497176.3172,1028.2391573044158
1736497176.31915,1028.4719608898633
1736497176.32111,1028.776268107969
1736497176.32306,1029.115337677261
1736497176.32501,1029.487395757669
1736497176.3269699,1029.8918408543702
1736497176.32892,1030.3232851627226
1736497176.3308702,1030.7986625424567
1736497176.3328202,1031.343575123306
1736497176.33478,1031.9874812955518
1736497176.33673,1032.7472136283075
1736497176.33868,1033.6155474418572
1736497176.3406398,1034.5650871145876
1736497176.34259,1035.5536816920762
1736497176.34454,1036.5530214835017
1736497176.3465,1037.5357107259608
1736497176.34845,1038.4597214101268
1736497176.3504,1039.297948911196
1736497176.35236,1040.0276382782174
1736497176.35431,1040.6861604926062
1736497176.35626,1041.3688932384823
1736497176.3582199,1042.1724440412133
1736497176.36017,1043.1708074023002
1736497176.3621202,1044.3223414713445
1736497176.3640702,1045.4970908000143
1736497176.36603,1046.5688753777217
1736497176.36798,1047.4057166085188
1736497176.36993,1048.018485056718
1736497176.3718898,1048.4979881935046
1736497176.37384,1048.9299730579132
1736497176.37579,1049.4017202342416
1736497176.37775,1049.935881458239
1736497176.3797,1050.5038216041546
1736497176.38165,1051.0840965331545
1736497176.38361,1051.6570023800966
1736497176.38556,1052.2109258455932
1736497176.38751,1052.7542095598485
1736497176.3894699,1053.2951114791347
1736497176.39142,1053.833663412007
1736497176.3933702,1054.3761233131095
1736497176.3953202,1054.924571789431
1736497176.39728,1055.4840801604319
1736497176.39923,1056.0472499410705
1736497176.40118,1056.5665558448
1736497176.4031398,1056.9610824519652
1736497176.40509,1057.1435496402491
1736497176.40704,1057.043041224781
1736497176.409,1056.702376605673
1736497176.41095,1056.2486433330382
1736497176.4129,1055.8052085562451
1736497176.41486,1055.4860880212802
1736497176.41681,1055.2970593996465
1736497176.41876,1055.1642708789016
1736497176.4207199,1055.0137122829876
1736497176.42267,1054.7784046648217
1736497176.4246202,1054.448844138347
1736497176.4265702,1054.0556606179932
1736497176.42853,1053.6279079486967
1736497176.43048,1053.2005475671
1736497176.43243,1052.7937648868465
1736497176.4343898,1052.4225915413606
1736497176.43634,1052.1074282509812
1736497176.43829,1051.8673330038055
1736497176.44025,1051.7748811567105
1736497176.4422,1051.9381804448687
1736497176.44415,1052.4636603527663
1736497176.44611,1053.4648015972064
1736497176.44806,1055.0343601688958
1736497176.45001,1057.2757757670208
1736497176.4519699,1060.3058332756564
1736497176.45392,1064.1980820500771
1736497176.4558702,1069.1153686306166
1736497176.4578202,1075.235901183917
1736497176.45978,1082.781555920071
1736497176.46173,1091.855776038045
1736497176.46368,1102.646750639661
1736497176.4656398,1115.3611773084417
1736497176.46759,1130.0128336800808
1736497176.46954,1146.7893594966613
1736497176.4715,1165.8585336617996
1736497176.47345,1187.0512015887502
1736497176.4754,1210.4771557729707
1736497176.47736,1236.2886333957188
1736497176.47931,1264.1692530780167
1736497176.48126,1294.1484731199462
1736497176.4832199,1326.2940880629449
1736497176.48517,1360.19480275858
1736497176.4871202,1396.0069630942107
1736497176.4890702,1433.7757203414449
1736497176.49103,1473.7648698133285
1736497176.49298,1515.6153006987317
1736497176.49493,1559.375678105823
1736497176.4968898,1605.008739873752
1736497176.49884,1651.7931916650746
1736497176.50079,1699.67695244039
1736497176.50275,1748.7252078656777
1736497176.5047,1798.3120945539504
1736497176.50665,1848.544980490467
1736497176.50861,1899.5454561464007
1736497176.51056,1950.5927459918669
1736497176.51251,2001.7086218537866
1736497176.5144699,2052.909359421339
